497,0
496,2
496,4
496,6
498,8
500,8
504,10
507,12
510,14
511,18
520,28
517,38
524,47
518,57
526,65
523,75
528,83
526,94
524,104
527,114
514,124
514,135
514,145
509,155
522,165
524,176
527,186
531,196
526,206
530,217
540,227
555,239
660,249
733,260
720,270
537,280
334,290
424,301
482,311
506,321
526,331
533,342
539,352
541,362
537,374
544,385
551,395
551,405
558,415
554,425
546,436
547,446
533,456
531,466
535,477
535,487
549,499
553,509
553,520
558,530
548,540
547,550
548,561
543,571
551,581
552,591
550,602
556,612
551,622
551,634
549,645
538,655
539,665
536,675
530,686
534,696
523,706
520,716
527,727
524,737
532,747
537,757
540,770
550,780
547,790
546,800
546,811
543,821
563,831
655,841
704,851
683,862
467,872
338,882
421,892
464,905
500,915
516,925
520,935
535,946
540,956
547,966
551,976
549,987
558,997
559,1007
555,1019
552,1032
546,1042
532,1054
530,1064
531,1077
529,1087
537,1099
544,1112
532,1122
528,1134
527,1144
523,1157
519,1169
524,1179
525,1191
523,1202
527,1214
527,1224
522,1236
525,1249
527,1259
518,1271
515,1282
514,1294
499,1306
492,1316
494,1329
489,1339
490,1351
498,1361
506,1374
509,1386
520,1396
527,1409
539,1419
618,1431
702,1443
670,1454
408,1466
337,1476
422,1488
461,1501
490,1511
500,1523
499,1533
506,1546
508,1556
507,1568
516,1581
527,1591
532,1603
541,1613
548,1626
537,1638
526,1648
527,1660
528,1671
530,1683
537,1693
533,1705
526,1718
525,1728
522,1740
515,1751
515,1763
519,1775
512,1785
512,1798
519,1808
517,1820
512,1832
516,1843
512,1855
504,1865
503,1878
496,1888
482,1900
483,1912
488,1923
485,1935
490,1945
496,1957
494,1970
492,1980
498,1992
500,2002
515,2015
587,2025
646,2037
625,2050
423,2060
314,2072
395,2082
448,2095
474,2107
481,2117
491,2129
502,2140
504,2152
509,2164
518,2174
517,2187
516,2197
521,2209
514,2220
497,2232
490,2244
483,2254
478,2267
486,2277
497,2289
496,2301
502,2312
511,2324
505,2334
504,2347
511,2357
509,2369
504,2381
512,2392
511,2404
505,2414
508,2426
510,2439
505,2449
507,2461
509,2471
500,2484
494,2496
497,2506
494,2519
496,2529
509,2541
510,2551
509,2564
520,2576
524,2586
530,2598
559,2609
671,2621
688,2633
616,2643
342,2656
360,2666
442,2678
486,2689
502,2701
516,2713
528,2723
531,2736
529,2746
538,2758
544,2770
542,2781
551,2793
557,2803
550,2816
543,2826
538,2838
532,2850
539,2861
551,2873
550,2883
544,2895
547,2908
547,2918
542,2930
547,2940
547,2953
540,2965
540,2975
542,2988
537,2998
541,3010
550,3020
546,3033
545,3045
545,3055
537,3067
527,3078
534,3090
534,3102
532,3112
547,3125
556,3135
553,3147
555,3158
556,3170
561,3182
586,3192
709,3205
727,3215
631,3227
380,3239
442,3250
505,3262
533,3272
548,3284
544,3297
548,3307
556,3319
561,3330
565,3342
579,3352
580,3364
584,3377
588,3387
582,3399
574,3409
575,3422
576,3434
577,3444
581,3457
577,3467
566,3479
560,3489
561,3502
558,3514
562,3524
560,3536
553,3547
553,3559
561,3571
562,3581
560,3594
572,3604
575,3616
569,3629
571,3639
566,3651
551,3661
551,3674
559,3684
568,3696
582,3708
594,3719
596,3731
595,3741
595,3753
600,3766
617,3776
744,3788
766,3799
656,3811
387,3821
451,3833
512,3846
544,3856
559,3868
563,3878
562,3891
569,3903
567,3913
566,3926
570,3936
568,3948
554,3960
540,3971
523,3983
506,3993
505,4005
511,4016
516,4028
530,4040
545,4050
542,4063
537,4073
537,4085
525,4098
507,4108
501,4120
492,4130
475,4143
454,4153
431,4165
389,4177
354,4188
351,4200
357,4210
382,4222
415,4235
427,4245
441,4257
459,4268
471,4280
481,4290
492,4302
499,4315
502,4325
512,4337
530,4347
551,4360
639,4372
655,4382
584,4395
316,4405
368,4417
434,4429
460,4440
476,4452
476,4462
467,4474
468,4485
469,4497
464,4509
471,4519
479,4532
473,4542
471,4554
469,4567
456,4577
445,4589
445,4599
444,4612
448,4622
455,4634
460,4646
453,4657
456,4669
457,4679
451,4691
451,4704
455,4714
452,4726
456,4737
468,4749
466,4761
466,4771
473,4784
471,4794
465,4806
464,4816
458,4829
448,4841
448,4851
457,4864
457,4874
460,4886
467,4898
465,4909
466,4921
481,4931
526,4943
616,4954
630,4966
483,4978
275,4988
360,5001
410,5011
433,5023
451,5036
466,5046
464,5058
469,5068
480,5081
480,5093
483,5103
488,5115
484,5126
477,5138
474,5148
463,5160
450,5173
460,5183
469,5195
472,5206
479,5218
480,5230
472,5240
472,5253
474,5263
467,5275
469,5285
478,5298
479,5310
476,5320
479,5332
477,5343
471,5355
472,5367
469,5378
458,5390
456,5400
454,5412
445,5425
440,5435
445,5447
444,5457
440,5470
443,5480
442,5492
433,5505
445,5515
477,5527
579,5537
618,5550
549,5562
255,5572
284,5584
358,5595
384,5607
400,5617
418,5629
423,5642
428,5652
437,5664
445,5675
448,5687
457,5699
457,5709
452,5722
446,5732
439,5744
425,5754
420,5767
428,5779
429,5789
429,5801
435,5812
431,5824
424,5836
431,5847
435,5859
436,5869
444,5881
446,5894
441,5904
440,5916
441,5926
428,5939
420,5949
419,5961
411,5974
406,5984
409,5996
400,6006
391,6019
395,6031
395,6041
395,6053
402,6064
408,6076
405,6086
410,6098
426,6111
442,6121
547,6133
607,6144
553,6156
247,6168
262,6178
340,6191
376,6201
405,6213
423,6225
427,6236
438,6248
447,6258
447,6270
454,6281
464,6293
463,6305
461,6316
465,6328
456,6338
444,6350
444,6363
445,6373
447,6385
456,6395
463,6408
464,6418
468,6430
474,6443
472,6453
478,6465
485,6475
483,6488
483,6500
489,6510
487,6522
480,6533
483,6545
487,6557
486,6567
492,6580
487,6590
477,6602
480,6612
482,6625
485,6637
490,6647
498,6660
501,6670
502,6682
506,6694
520,6705
566,6717
692,6727
683,6739
491,6750
317,6762
396,6774
438,6785
470,6797
491,6807
501,6819
511,6832
523,6842
525,6854
527,6864
534,6877
539,6889
537,6899
534,6912
527,6922
517,6934
519,6944
529,6957
535,6969
543,6979
549,6991
546,7002
549,7014
553,7026
552,7036
552,7049
557,7059
558,7071
556,7081
561,7094
563,7106
554,7116
551,7129
549,7139
543,7151
547,7163
549,7174
545,7186
542,7196
544,7208
544,7219
544,7231
549,7243
549,7254
545,7266
549,7276
563,7288
591,7301
687,7311
693,7323
583,7333
345,7346
425,7358
473,7368
501,7380
520,7391
525,7403
527,7413
534,7426
540,7438
539,7448
542,7460
545,7471
538,7483
534,7495
530,7505
516,7518
507,7528
511,7540
518,7550
520,7563
528,7575
528,7585
523,7598
527,7608
528,7620
526,7632
527,7643
535,7655
531,7665
529,7677
535,7690
532,7700
526,7712
530,7723
526,7735
515,7745
513,7757
508,7770
495,7780
496,7792
495,7802
494,7815
496,7827
500,7837
497,7849
499,7860
514,7872
530,7882
577,7895
646,7907
646,7917
484,7929
353,7940
425,7952
460,7964
486,7974
501,7987
505,7997
510,8009
517,8022
517,8032
522,8044
536,8054
534,8067
528,8077
527,8089
517,8101
503,8112
503,8124
509,8134
512,8146
521,8159
522,8169
514,8181
513,8192
515,8204
507,8214
503,8226
506,8239
505,8249
507,8261
509,8271
507,8284
500,8296
502,8306
507,8318
506,8329
508,8341
510,8353
505,8364
499,8376
502,8386
500,8398
498,8409
508,8421
513,8433
514,8443
521,8456
524,8466
526,8478
543,8491
604,8501
673,8513
681,8523
512,8536
341,8546
418,8558
468,8570
490,8581
503,8593
517,8603
523,8615
524,8628
534,8638
541,8650
539,8660
543,8673
547,8683
539,8695
536,8708
534,8718
526,8730
530,8740
541,8753
542,8765
540,8775
545,8787
539,8798
533,8810
535,8822
534,8833
525,8845
526,8855
532,8867
528,8878
528,8890
534,8902
530,8912
526,8925
528,8935
526,8947
521,8960
523,8970
520,8982
511,8992
508,9005
514,9015
504,9027
505,9039
513,9050
510,9062
509,9072
514,9084
511,9097
511,9107
540,9119
643,9129
692,9142
642,9154
343,9164
346,9177
426,9187
462,9199
477,9209
496,9222
506,9234
507,9244
510,9256
519,9267
519,9279
518,9291
521,9302
518,9314
507,9324
508,9336
505,9347
504,9359
513,9371
526,9381
525,9394
529,9404
531,9416
522,9428
524,9439
534,9451
534,9461
530,9474
534,9486
536,9496
530,9508
529,9519
527,9531
520,9541
522,9553
527,9566
520,9576
515,9588
517,9598
507,9611
502,9623
501,9633
500,9646
499,9656
511,9668
518,9678
516,9691
516,9703
521,9713
518,9725
527,9736
545,9748
636,9760
704,9771
676,9783
382,9793
356,9805
449,9818
480,9828
496,9840
510,9850
517,9863
520,9873
528,9885
535,9897
533,9908
533,9920
539,9930
533,9943
527,9955
521,9965
508,9977
505,9988
518,10000
530,10012
531,10024
532,10037
535,10049
534,10061
529,10074
530,10088
540,10100
541,10113
538,10125
535,10137
538,10149
537,10162
531,10174
524,10186
527,10199
528,10211
525,10225
521,10237
523,10250
517,10262
511,10274
509,10287
513,10299
521,10311
522,10323
521,10336
525,10350
528,10362
536,10375
589,10387
693,10399
683,10412
400,10424
366,10436
460,10448
494,10461
502,10473
503,10487
512,10500
516,10512
517,10524
522,10536
536,10549
545,10561
543,10573
535,10586
527,10598
512,10610
504,10625
513,10637
531,10649
540,10661
535,10674
527,10686
526,10698
525,10711
521,10723
520,10735
528,10749
535,10762
528,10774
522,10786
520,10799
520,10811
512,10823
502,10835
504,10848
510,10860
505,10872
495,10887
491,10899
490,10911
486,10924
489,10936
500,10948
506,10960
504,10973
506,10985
513,10997
535,11010
639,11024
671,11036
552,11048
311,11061
386,11073
437,11085
471,11098
488,11110
500,11122
503,11134
510,11149
517,11161
517,11173
517,11186
523,11198
522,11210
507,11223
489,11235
486,11247
494,11259
500,11272
503,11286
511,11298
516,11311
517,11323
512,11335
516,11347
519,11360
519,11372
518,11384
522,11397
526,11409
521,11423
512,11436
508,11448
511,11460
504,11472
496,11485
490,11497
488,11509
487,11522
484,11534
493,11548
504,11560
501,11573
500,11585
496,11597
507,11610
527,11622
615,11634
668,11646
604,11659
312,11671
360,11685
426,11698
455,11710
472,11722
482,11735
493,11747
503,11759
505,11771
504,11784
508,11796
512,11808
511,11823
498,11835
490,11847
487,11859
487,11872
490,11884
495,11896
501,11909
496,11921
490,11933
491,11948
495,11960
495,11972
490,11984
483,11997
482,12009
473,12021
455,12034
450,12046
450,12058
450,12070
445,12085
444,12097
449,12109
448,12122
444,12134
445,12146
458,12158
464,12171
460,12183
457,12195
458,12208
469,12222
487,12234
581,12247
605,12259
488,12271
278,12283
344,12296
382,12308
400,12320
402,12333
402,12347
405,12359
406,12371
404,12384
405,12396
410,12408
408,12421
397,12433
383,12445
371,12457
358,12470
353,12484
355,12496
358,12509
353,12521
345,12533
338,12546
337,12558
334,12570
322,12582
316,12595
318,12607
315,12621
308,12634
304,12646
303,12658
298,12670
285,12683
275,12695
274,12707
269,12720
258,12732
249,12746
246,12759
244,12771
241,12783
233,12795
233,12808
233,12820
238,12832
258,12845
360,12857
414,12869
376,12883
94,12896
139,12906
182,12918
187,12931
188,12943
195,12957
197,12969
192,12982
195,12994
203,13006
210,13019
207,13031
203,13043
198,13056
187,13068
176,13082
177,13094
190,13107
198,13119
197,13131
193,13144
198,13156
199,13168
199,13180
207,13193
217,13205
221,13219
221,13232
219,13244
223,13256
227,13268
224,13281
223,13293
230,13305
230,13318
230,13330
227,13342
228,13357
235,13369
239,13381
251,13393
268,13406
282,13418
289,13430
296,13443
318,13455
356,13467
477,13481
540,13494
449,13506
201,13518
280,13531
330,13543
365,13555
386,13568
400,13580
414,13592
429,13604
443,13619
452,13631
464,13643
477,13656
483,13668
477,13680
475,13692
484,13705
500,13717
513,13729
522,13742
531,13756
539,13768
536,13780
539,13793
553,13805
564,13817
567,13830
569,13842
577,13854
583,13867
583,13881
579,13893
588,13905
598,13918
599,13930
600,13942
607,13955
614,13967
615,13979
614,13991
616,14004
628,14018
631,14030
639,14043
650,14055
658,14067
658,14080
654,14092
661,14104
677,14116
758,14129
836,14141
816,14155
531,14168
562,14180
644,14192
672,14204
688,14217
693,14229
698,14241
703,14254
709,14266
712,14280
714,14292
718,14305
721,14317
715,14329
704,14342
704,14354
711,14366
718,14379
724,14391
730,14403
737,14417
734,14430
728,14442
732,14454
740,14467
740,14479
734,14491
731,14503
736,14516
736,14528
729,14540
731,14555
736,14567
732,14579
725,14592
723,14604
727,14616
724,14628
721,14641
724,14653
727,14665
726,14680
721,14692
718,14704
718,14716
718,14729
711,14741
716,14753
719,14766
715,14778
707,14790
709,14802
721,14817
733,14829
812,14841
867,14854
810,14866
525,14878
594,14891
663,14903
689,14915
695,14927
691,14940
693,14954
696,14966
697,14979
692,14991
692,15003
698,15015
696,15028
682,15040
668,15052
663,15065
660,15079
660,15091
668,15104
675,15116
676,15128
669,15140
665,15153
667,15165
668,15177
661,15190
655,15202
651,15216
648,15228
641,15241
639,15253
639,15265
633,15278
622,15290
615,15302
616,15314
614,15327
608,15339
606,15353
605,15366
601,15378
590,15390
587,15403
590,15415
586,15427
584,15439
585,15452
590,15464
588,15478
583,15491
588,15503
632,15515
735,15527
734,15540
470,15552
406,15564
505,15577
533,15589
547,15601
556,15616
560,15628
560,15640
557,15652
567,15665
573,15677
568,15689
563,15702
560,15714
549,15726
531,15738
522,15753
531,15765
540,15777
539,15790
537,15802
539,15814
536,15826
531,15839
529,15851
532,15863
536,15878
530,15890
529,15902
531,15915
529,15927
521,15939
515,15951
512,15964
511,15976
507,15988
506,16001
507,16015
506,16027
500,16039
496,16052
498,16064
498,16076
486,16089
481,16101
489,16113
491,16125
493,16138
492,16152
494,16164
495,16177
490,16189
491,16201
519,16214
648,16226
674,16238
528,16250
312,16263
378,16277
415,16289
437,16302
460,16314
478,16326
486,16338
488,16351
496,16363
503,16375
500,16388
495,16400
494,16414
491,16427
482,16439
470,16451
475,16463
486,16476
492,16488
494,16500
494,16513
494,16525
494,16537
495,16551
502,16564
509,16576
506,16588
501,16601
504,16613
507,16625
500,16637
493,16650
495,16662
496,16676
492,16689
489,16701
488,16713
492,16726
489,16738
484,16750
484,16762
486,16775
484,16787
480,16799
490,16814
498,16826
497,16838
491,16850
494,16863
508,16875
528,16887
634,16900
674,16912
566,16924
319,16936
388,16951
436,16963
470,16975
488,16988
496,17000
501,17012
511,17025
513,17037
512,17049
512,17061
514,17076
507,17088
499,17100
491,17113
490,17125
493,17137
499,17149
507,17162
512,17174
511,17186
505,17199
509,17213
515,17225
513,17238
510,17250
512,17262
519,17274
519,17287
514,17299
512,17311
514,17324
513,17336
504,17350
502,17362
505,17375
506,17387
500,17399
502,17412
505,17424
505,17436
496,17448
489,17461
493,17475
493,17487
489,17500
492,17512
499,17524
500,17537
498,17549
502,17561
518,17573
604,17586
658,17598
630,17612
346,17625
368,17637
424,17649
457,17661
480,17674
490,17686
492,17698
496,17711
505,17723
512,17735
512,17750
514,17762
517,17774
512,17786
499,17799
491,17811
493,17823
498,17836
501,17848
505,17860
511,17874
512,17887
509,17899
509,17911
515,17924
523,17936
522,17948
523,17960
526,17973
527,17985
520,17997
517,18012
520,18024
520,18036
514,18049
513,18061
521,18073
523,18085
522,18098
523,18110
527,18122
527,18135
522,18149
519,18161
524,18173
528,18186
520,18198
514,18210
517,18223
518,18235
519,18247
516,18259
521,18274
526,18286
524,18298
530,18311
552,18323
647,18335
678,18348
589,18360
358,18372
430,18384
474,18397
496,18411
514,18423
523,18436
525,18448
529,18460
536,18472
545,18485
546,18497
542,18509
542,18522
540,18534
530,18548
519,18561
525,18573
533,18585
538,18597
540,18610
544,18622
547,18634
543,18647
540,18659
548,18673
551,18685
548,18698
544,18710
548,18722
552,18735
549,18747
546,18759
545,18771
543,18784
541,18796
535,18810
539,18823
544,18835
541,18847
536,18860
539,18872
541,18884
539,18896
532,18909
532,18921
533,18933
535,18948
533,18960
538,18972
545,18984
543,18997
541,19009
542,19021
550,19034
560,19046
618,19058
691,19073
685,19085
419,19097
402,19109
479,19122
511,19134
526,19146
533,19159
540,19171
548,19183
547,19195
543,19210
547,19222
554,19234
553,19247
545,19259
541,19271
538,19283
537,19296
537,19308
546,19320
551,19333
551,19347
545,19359
545,19372
551,19384
551,19396
549,19408
551,19421
556,19433
554,19445
550,19458
549,19472
552,19484
551,19496
545,19509
545,19521
547,19533
545,19546
537,19558
537,19570
543,19582
540,19595
537,19609
539,19621
540,19634
535,19646
530,19658
529,19671
536,19683
537,19695
533,19707
536,19720
542,19732
548,19746
557,19759
641,19771
696,19783
642,19795
348,19808
413,19820
487,19832
515,19845
525,19857
531,19871
541,19884
546,19896
545,19908
546,19920
557,19933
561,19945
553,19957
544,19970
538,19982
531,19994
526,20008
528,20021
537,20033
543,20045
536,20058
532,20070
535,20082
535,20094
533,20107
532,20119
534,20131
535,20146
532,20158
532,20170
534,20183
536,20195
531,20207
525,20219
522,20232
518,20244
513,20256
513,20271
518,20283
515,20295
506,20307
499,20320
498,20332
497,20344
493,20357
496,20369
506,20381
509,20393
504,20408
500,20420
512,20432
534,20445
616,20457
657,20469
562,20482
324,20494
396,20506
450,20518
481,20531
497,20545
500,20557
502,20570
511,20582
517,20594
519,20606
520,20619
523,20631
523,20643
509,20656
495,20670
490,20682
494,20695
498,20707
496,20719
500,20731
500,20744
494,20756
486,20768
488,20781
494,20793
496,20807
495,20819
496,20832
497,20844
490,20856
483,20869
483,20881
482,20893
480,20905
479,20918
479,20930
481,20944
477,20957
471,20969
469,20981
465,20994
456,21006
454,21018
458,21030
468,21043
472,21055
470,21069
472,21082
474,21094
475,21106
493,21118
602,21131
643,21143
548,21155
279,21168
363,21180
415,21192
437,21207
449,21219
459,21231
471,21243
477,21256
480,21268
487,21280
494,21293
492,21305
486,21317
483,21329
476,21344
465,21356
464,21368
474,21381
483,21393
484,21405
478,21417
478,21430
478,21442
476,21454
475,21469
480,21481
487,21493
488,21506
485,21518
490,21530
494,21542
492,21555
485,21567
484,21579
486,21592
484,21606
482,21618
482,21630
480,21643
476,21655
473,21667
475,21680
490,21692
497,21704
495,21716
496,21729
501,21743
513,21755
534,21768
649,21780
670,21792
527,21805
324,21817
413,21829
458,21841
483,21854
495,21868
504,21880
514,21893
519,21905
520,21917
524,21929
534,21942
535,21954
529,21966
520,21979
514,21991
507,22005
506,22018
510,22030
519,22042
520,22054
512,22067
515,22079
515,22091
515,22104
512,22116
514,22128
520,22142
521,22155
516,22167
515,22179
519,22192
518,22204
513,22216
513,22228
515,22241
514,22253
509,22267
503,22280
503,22292
504,22304
500,22317
507,22329
513,22341
513,22353
507,22366
503,22378
512,22390
530,22405
598,22417
643,22429
608,22441
349,22454
386,22466
438,22478
474,22491
492,22503
495,22515
493,22528
499,22542
505,22554
509,22566
514,22579
523,22591
528,22603
522,22616
510,22628
503,22640
503,22652
504,22667
507,22679
512,22691
515,22704
512,22716
511,22728
516,22740
520,22753
521,22765
523,22777
528,22790
531,22804
525,22816
522,22829
521,22841
520,22853
510,22865
506,22878
511,22890
516,22902
512,22915
508,22927
505,22941
507,22953
504,22966
502,22978
513,22990
519,23003
514,23015
509,23027
510,23040
521,23052
559,23066
641,23078
657,23091
428,23103
358,23115
440,23128
483,23140
505,23152
511,23164
514,23177
519,23189
525,23203
530,23216
533,23228
541,23240
546,23252
541,23265
533,23277
527,23289
528,23302
531,23314
532,23326
538,23341
541,23353
535,23365
529,23377
530,23390
534,23402
535,23414
537,23427
542,23439
546,23451
542,23465
533,23478
532,23490
535,23502
530,23515
525,23527
527,23539
532,23552
531,23564
529,23576
530,23588
534,23603
534,23615
523,23627
525,23640
534,23652
534,23664
536,23676
541,23689
545,23701
543,23713
539,23726
546,23740
574,23752
671,23764
701,23777
580,23789
366,23801
443,23814
485,23826
510,23838
529,23851
539,23865
542,23877
550,23889
556,23902
558,23914
558,23926
559,23939
559,23951
552,23963
542,23975
539,23988
546,24002
549,24014
549,24027
550,24039
551,24051
548,24064
543,24076
545,24088
550,24100
550,24113
546,24125
550,24139
553,24152
553,24164
549,24176
553,24188
562,24201
562,24213
557,24225
554,24238
556,24250
552,24264
545,24276
543,24289
543,24301
544,24313
539,24326
540,24338
552,24350
552,24363
546,24375
543,24387
549,24401
559,24414
594,24426
693,24438
714,24451
482,24463
364,24475
455,24487
500,24500
522,24512
532,24524
537,24539
547,24551
552,24563
551,24576
553,24588
557,24600
561,24612
557,24625
551,24637
548,24649
545,24664
545,24676
548,24688
554,24700
552,24713
545,24725
542,24737
548,24750
550,24762
547,24774
546,24786
551,24801
550,24813
545,24825
539,24838
543,24850
546,24862
542,24875
540,24887
543,24899
542,24911
537,24924
531,24938
535,24950
539,24963
536,24975
531,24987
526,24999
528,25012
525,25024
523,25036
529,25049
532,25063
532,25075
530,25088
534,25100
543,25112
584,25124
666,25137
675,25149
433,25161
364,25174
445,25186
487,25200
508,25212
515,25225
518,25237
528,25249
531,25262
534,25274
537,25286
542,25298
546,25311
542,25323
530,25337
523,25350
521,25362
521,25374
524,25387
532,25399
533,25411
530,25423
522,25436
524,25448
528,25462
526,25475
523,25487
526,25499
533,25511
534,25524
532,25536
536,25548
532,25561
524,25573
513,25585
512,25600
510,25612
504,25624
497,25636
500,25649
501,25661
502,25673
498,25686
500,25698
506,25710
507,25722
508,25737
513,25749
514,25761
511,25774
508,25786
512,25798
525,25810
585,25823
667,25835
660,25847
379,25862
357,25874
431,25886
466,25899
484,25911
495,25923
503,25935
514,25948
518,25960
520,25972
520,25985
525,25999
528,26011
524,26023
509,26036
501,26048
504,26060
507,26073
508,26085
511,26097
512,26109
510,26122
503,26136
501,26148
507,26161
509,26173
506,26185
506,26198
511,26210
512,26222
505,26234
503,26247
506,26261
506,26273
500,26286
496,26298
498,26310
498,26322
490,26335
488,26347
492,26359
491,26372
480,26384
480,26398
486,26411
489,26423
493,26435
491,26447
491,26460
493,26472
489,26484
496,26497
547,26509
643,26521
648,26535
399,26548
332,26560
405,26572
441,26585
465,26597
482,26609
492,26621
492,26634
494,26646
503,26660
507,26673
508,26685
512,26697
513,26710
505,26722
490,26734
484,26746
489,26759
491,26771
488,26783
491,26798
496,26810
497,26822
494,26834
493,26847
496,26859
497,26871
494,26884
491,26896
493,26908
495,26920
494,26935
494,26947
498,26959
500,26972
495,26984
491,26996
494,27009
494,27021
491,27033
491,27045
494,27060
495,27072
490,27084
484,27097
487,27109
490,27121
487,27133
492,27146
501,27158
505,27170
503,27183
502,27197
512,27209
556,27222
625,27234
635,27246
410,27258
335,27271
403,27283
444,27295
473,27308
489,27320
496,27334
497,27346
505,27359
516,27371
519,27383
520,27396
520,27408
512,27420
500,27432
487,27445
481,27459
485,27471
488,27484
490,27496
493,27508
496,27521
493,27533
489,27545
491,27557
496,27570
494,27582
494,27596
496,27609
500,27621
498,27633
493,27645
495,27658
493,27670
486,27682
480,27695
482,27707
482,27719
477,27734
470,27746
471,27758
471,27770
467,27783
465,27795
469,27807
474,27820
472,27832
461,27844
462,27858
462,27871
461,27883
458,27895
461,27908
464,27920
463,27932
460,27944
470,27957
520,27969
600,27981
616,27996
397,28008
303,28020
371,28033
402,28045
427,28057
445,28069
453,28082
457,28094
460,28106
468,28119
475,28133
476,28145
480,28157
483,28170
478,28182
469,28194
465,28207
469,28219
474,28231
470,28243
468,28258
470,28270
467,28282
462,28295
465,28307
473,28319
477,28332
474,28344
474,28356
478,28368
478,28381
476,28395
476,28407
482,28420
482,28432
479,28444
479,28456
483,28469
484,28481
481,28493
481,28506
487,28518
490,28532
488,28545
491,28557
497,28569
497,28581
490,28594
492,28606
497,28618
502,28631
503,28643
502,28657
506,28669
509,28682
508,28694
517,28706
558,28719
655,28731
678,28743
468,28755
337,28768
428,28780
467,28794
491,28807
508,28819
515,28831
516,28844
523,28856
530,28868
537,28880
540,28893
544,28905
550,28917
549,28932
542,28944
537,28956
542,28968
548,28981
549,28993
547,29005
548,29018
546,29030
541,29042
542,29057
548,29069
551,29081
549,29093
551,29106
558,29118
562,29130
557,29143
554,29155
556,29167
557,29179
549,29194
547,29206
554,29218
558,29231
556,29243
553,29255
557,29267
560,29280
558,29292
548,29304
549,29317
555,29331
552,29343
553,29356
558,29368
560,29380
557,29392
553,29405
561,29417
577,29429
650,29442
711,29456
690,29468
402,29480
428,29493
499,29505
529,29517
547,29530
554,29542
560,29554
567,29566
574,29579
576,29593
575,29605
582,29618
585,29630
583,29642
575,29655
571,29667
571,29679
573,29691
569,29704
571,29716
571,29730
565,29743
559,29755
562,29767
566,29779
568,29792
564,29804
567,29816
571,29829
567,29841
561,29855
561,29868
564,29880
562,29892
554,29904
551,29917
552,29929
549,29941
544,29954
545,29966
548,29978
546,29992
540,30005
539,30017
537,30029
531,30042
526,30054
527,30066
536,30078
539,30091
534,30103
533,30115
538,30130
544,30142
564,30154
669,30167
700,30179
583,30191
345,30203
428,30216
480,30228
502,30240
510,30255
519,30267
529,30279
534,30291
536,30304
541,30316
550,30328
555,30341
551,30353
547,30365
541,30377
533,30392
524,30404
525,30416
533,30429
534,30441
527,30453
523,30466
529,30478
526,30490
521,30502
523,30515
529,30529
532,30541
526,30554
525,30566
528,30578
528,30590
521,30603
515,30615
515,30627
516,30640
510,30654
509,30666
512,30679
508,30691
500,30703
495,30715
492,30728
492,30740
491,30752
494,30765
502,30777
504,30791
500,30803
495,30816
503,30828
524,30840
616,30853
655,30865
553,30877
312,30889
379,30902
426,30914
457,30928
473,30941
480,30953
491,30965
499,30978
502,30990
502,31002
505,31014
513,31027
515,31039
505,31053
495,31066
495,31078
495,31090
494,31102
493,31115
499,31127
502,31139
498,31152
491,31164
498,31176
505,31191
506,31203
506,31215
507,31227
502,31240
493,31252
485,31264
486,31277
491,31289
488,31301
487,31313
490,31328
491,31340
485,31352
480,31365
478,31377
480,31389
474,31401
465,31414
470,31426
473,31438
475,31453
476,31465
479,31477
480,31490
480,31502
486,31514
506,31526
605,31539
635,31551
533,31563
311,31576
381,31590
425,31602
448,31614
468,31627
479,31639
482,31651
483,31664
488,31676
494,31688
495,31700
494,31713
498,31727
499,31739
495,31752
488,31764
490,31776
496,31789
495,31801
489,31813
490,31825
493,31838
490,31852
488,31864
491,31877
494,31889
496,31901
492,31913
493,31926
496,31938
494,31950
490,31963
489,31975
492,31989
491,32002
485,32014
486,32026
488,32038
488,32051
486,32063
487,32075
486,32088
483,32100
480,32112
480,32126
487,32139
489,32151
485,32163
487,32176
489,32188
492,32200
503,32212
590,32225
644,32237
560,32251
276,32264
344,32276
407,32288
435,32301
452,32313
466,32325
479,32337
486,32350
488,32362
496,32374
506,32389
509,32401
504,32413
498,32425
494,32438
488,32450
485,32462
491,32475
501,32487
504,32499
498,32512
495,32526
497,32538
498,32550
494,32563
493,32575
497,32587
501,32600
499,32612
498,32624
502,32636
501,32651
495,32663
495,32675
494,32688
494,32700
489,32712
489,32724
492,32737
491,32749
483,32761
481,32774
485,32788
487,32800
493,32813
497,32825
502,32837
500,32849
496,32862
502,32874
532,32886
624,32899
658,32911
465,32925
315,32937
392,32950
431,32962
456,32974
479,32987
492,32999
494,33011
499,33024
509,33036
515,33050
516,33062
516,33075
522,33087
520,33099
510,33112
505,33124
512,33136
519,33148
519,33161
517,33173
517,33187
516,33200
511,33212
508,33224
513,33236
518,33249
516,33261
513,33273
511,33286
510,33298
506,33310
505,33325
505,33337
510,33349
508,33361
506,33374
508,33386
510,33398
508,33411
504,33423
506,33435
504,33449
502,33462
503,33474
508,33486
516,33499
514,33511
512,33523
514,33536
518,33548
524,33560
561,33572
661,33587
680,33599
432,33611
348,33624
429,33636
473,33648
493,33660
507,33673
522,33685
534,33697
539,33710
539,33724
546,33736
555,33748
557,33761
553,33773
553,33785
551,33798
547,33810
547,33822
552,33835
553,33849
550,33861
547,33873
547,33886
549,33898
549,33910
547,33923
552,33935
556,33947
554,33959
549,33972
549,33986
549,33998
546,34011
541,34023
539,34035
539,34048
535,34060
529,34072
528,34084
532,34097
526,34109
521,34123
524,34136
529,34148
532,34160
529,34172
530,34185
532,34197
532,34209
534,34222
572,34234
677,34248
685,34260
456,34273
360,34285
484,34297
504,34310
508,34322
514,34334
523,34347
528,34359
529,34371
534,34385
540,34398
542,34410
542,34422
540,34435
538,34447
532,34459
527,34471
529,34484
532,34496
534,34508
530,34523
526,34535
525,34547
523,34560
520,34572
521,34584
525,34596
525,34609
521,34621
519,34633
520,34648
518,34660
514,34672
514,34684
517,34697
513,34709
507,34721
507,34734
510,34746
506,34758
502,34770
500,34785
502,34797
503,34809
502,34822
504,34834
508,34846
507,34859
503,34871
507,34883
522,34895
579,34908
656,34922
647,34934
365,34947
342,34959
410,34971
451,34983
481,34996
498,35008
503,35020
508,35033
513,35047
516,35059
517,35072
516,35084
524,35096
525,35108
516,35121
506,35133
507,35145
508,35158
508,35170
505,35184
505,35196
506,35209
499,35221
495,35233
497,35246
499,35258
495,35270
494,35282
494,35295
495,35307
494,35321
495,35334
498,35346
497,35358
491,35371
486,35383
486,35395
484,35407
481,35420
478,35432
477,35446
477,35459
475,35471
471,35483
479,35495
487,35508
486,35520
486,35532
491,35545
499,35557
516,35569
596,35584
638,35596
558,35608
304,35620
361,35633
416,35645
450,35657
468,35670
477,35682
486,35694
494,35706
496,35721
496,35733
505,35745
515,35758
516,35770
510,35782
505,35794
504,35807
502,35819
502,35831
505,35846
507,35858
505,35870
500,35883
501,35895
504,35907
502,35919
501,35932
503,35944
506,35956
507,35969
504,35983
507,35995
508,36007
504,36020
501,36032
502,36044
503,36057
498,36069
495,36081
497,36093
500,36106
500,36120
494,36132
492,36145
495,36157
493,36169
491,36182
500,36194
507,36206
509,36218
505,36231
508,36245
518,36257
539,36270
609,36282
650,36294
564,36306
346,36319
402,36331
446,36343
475,36356
485,36368
489,36382
496,36395
507,36407
515,36419
516,36431
521,36444
528,36456
530,36468
525,36481
519,36493
519,36505
524,36519
527,36532
529,36544
531,36556
528,36569
523,36581
521,36593
519,36605
520,36618
517,36630
518,36644
521,36657
519,36669
515,36681
513,36694
516,36706
517,36718
515,36730
515,36743
520,36755
521,36767
517,36782
516,36794
518,36806
515,36818
512,36831
509,36843
514,36855
515,36868
514,36880
517,36892
521,36904
519,36919
513,36931
513,36943
524,36956
549,36968
637,36980
677,36993
550,37005
327,37017
397,37029
446,37044
476,37056
494,37068
502,37081
507,37093
516,37105
522,37117
524,37130
525,37142
530,37154
533,37167
529,37181
523,37193
523,37206
526,37218
527,37230
527,37242
530,37255
528,37267
523,37279
519,37292
522,37304
525,37318
524,37330
525,37343
529,37355
532,37367
527,37380
525,37392
529,37404
530,37416
525,37429
523,37443
525,37455
523,37468
520,37480
517,37492
522,37505
525,37517
522,37529
518,37541
519,37554
519,37566
512,37580
504,37593
507,37605
510,37617
514,37629
513,37642
516,37654
516,37666
515,37679
515,37691
525,37703
600,37718
663,37730
652,37742
365,37754
380,37767
448,37779
480,37791
499,37804
513,37816
521,37828
526,37842
534,37855
543,37867
546,37879
546,37892
550,37904
548,37916
544,37928
535,37941
532,37953
535,37965
535,37980
531,37992
527,38004
526,38017
524,38029
522,38041
527,38053
532,38066
531,38078
528,38090
528,38103
533,38117
528,38129
524,38141
526,38154
528,38166
524,38178
520,38191
518,38203
522,38215
518,38227
515,38242
516,38254
517,38266
514,38279
505,38291
504,38303
508,38316
509,38328
510,38340
512,38352
517,38365
517,38379
514,38391
522,38404
545,38416
657,38428
692,38440
583,38453
355,38465
417,38477
455,38490
481,38502
501,38516
510,38529
515,38541
522,38553
532,38565
537,38578
538,38590
540,38602
542,38615
538,38627
529,38641
520,38653
522,38666
522,38678
518,38690
518,38703
518,38715
517,38727
513,38739
511,38752
515,38764
517,38778
513,38791
514,38803
519,38815
520,38828
519,38840
517,38852
518,38864
516,38877
509,38889
504,38901
507,38916
509,38928
506,38940
505,38952
507,38965
506,38977
501,38989
496,39002
498,39014
503,39026
506,39041
510,39053
512,39065
512,39077
507,39090
510,39102
524,39114
624,39127
668,39139
619,39151
333,39163
379,39178
425,39190
454,39202
474,39215
487,39227
493,39239
499,39251
504,39264
508,39276
508,39288
510,39301
513,39315
512,39327
504,39340
497,39352
501,39364
504,39376
504,39389
502,39401
501,39413
498,39426
492,39440
491,39452
496,39464
500,39477
500,39489
499,39501
501,39514
501,39526
497,39538
492,39550
493,39563
493,39577
490,39589
485,39602
483,39614
484,39626
478,39639
469,39651
466,39663
466,39675
461,39688
457,39700
460,39714
464,39727
465,39739
464,39751
471,39763
480,39776
484,39788
484,39800
489,39813
496,39825
510,39839
583,39852
631,39864
588,39876
312,39888
361,39901
416,39913
449,39925
465,39938
474,39950
484,39962
491,39976
496,39989
500,40001
510,40013
517,40026
515,40038
506,40050
501,40062
499,40075
495,40087
496,40099
500,40114
503,40126
497,40138
489,40151
489,40163
490,40175
490,40187
485,40200
489,40212
496,40224
496,40239
495,40251
497,40263
502,40275
502,40288
501,40300
502,40312
506,40325
509,40337
510,40349
510,40361
514,40376
514,40388
511,40400
510,40413
512,40425
507,40437
505,40450
508,40462
514,40474
519,40486
515,40499
515,40513
518,40525
517,40538
524,40550
568,40562
658,40574
678,40587
452,40599
354,40611
422,40624
455,40638
474,40650
491,40663
508,40675
514,40687
515,40699
519,40712
526,40724
532,40736
529,40749
527,40761
529,40775
525,40787
518,40800
521,40812
528,40824
529,40837
524,40849
518,40861
518,40873
520,40886
517,40898
515,40912
521,40925
523,40937
518,40949
515,40962
518,40974
519,40986
515,40998
516,41011
518,41023
517,41037
510,41050
510,41062
509,41074
509,41086
505,41099
503,41111
503,41123
500,41136
494,41148
493,41160
501,41175
505,41187
505,41199
506,41211
510,41224
515,41236
525,41248
601,41261
665,41273
618,41285
326,41297
372,41312
434,41324
467,41336
482,41349
492,41361
504,41373
514,41385
513,41398
517,41410
525,41422
531,41437
532,41449
530,41461
527,41474
526,41486
521,41498
520,41510
525,41523
528,41535
522,41547
518,41560
520,41574
521,41586
522,41598
520,41611
526,41623
532,41635
531,41648
528,41660
531,41672
531,41684
526,41697
523,41711
525,41723
524,41736
520,41748
520,41760
524,41773
524,41785
521,41797
513,41809
512,41822
514,41836
512,41848
511,41861
515,41873
520,41885
520,41897
522,41910
528,41922
553,41934
651,41947
680,41959
530,41973
342,41986
418,41998
459,42010
482,42022
500,42035
509,42047
514,42059
520,42072
530,42084
534,42096
535,42110
540,42123
544,42135
538,42147
528,42160
526,42172
524,42184
525,42196
525,42209
525,42221
527,42235
524,42248
517,42260
519,42272
524,42285
524,42297
521,42309
523,42321
527,42334
527,42346
523,42358
521,42373
523,42385
520,42397
515,42409
515,42422
515,42434
511,42446
507,42459
502,42471
502,42483
500,42496
495,42510
503,42522
510,42534
510,42547
506,42559
505,42571
516,42584
543,42596
639,42608
659,42620
500,42635
334,42647
401,42659
445,42672
473,42684
487,42696
494,42708
501,42721
507,42733
510,42745
509,42758
513,42772
520,42784
521,42797
510,42809
501,42821
498,42833
498,42846
496,42858
495,42870
496,42883
493,42895
487,42909
489,42921
493,42934
498,42946
497,42958
499,42971
501,42983
499,42995
496,43008
494,43020
497,43034
497,43046
491,43059
486,43071
488,43083
487,43096
483,43108
475,43120
476,43132
475,43145
470,43157
473,43171
481,43184
485,43196
484,43208
484,43220
498,43233
523,43245
614,43257
644,43270
533,43282
313,43294
380,43309
423,43321
453,43333
469,43345
475,43358
481,43370
489,43382
495,43395
499,43407
503,43419
511,43433
513,43446
505,43458
496,43470
493,43483
496,43495
496,43507
494,43520
496,43532
496,43544
492,43556
490,43571
494,43583
497,43595
496,43608
496,43620
499,43632
500,43644
497,43657
494,43669
496,43681
499,43694
497,43708
493,43720
495,43732
497,43745
493,43757
487,43769
484,43782
486,43794
482,43806
482,43819
493,43833
498,43845
498,43857
493,43870
495,43882
506,43894
548,43907
618,43919
630,43931
401,43943
335,43956
389,43970
422,43982
445,43995
453,44007
457,44019
461,44032
468,44044
471,44056
474,44068
479,44081
483,44093
480,44107
469,44120
464,44132
465,44144
465,44156
463,44169
463,44181
462,44193
452,44206
442,44218
439,44232
440,44244
437,44257
430,44269
428,44281
426,44294
419,44306
409,44318
403,44331
400,44343
392,44355
383,44369
378,44382
374,44394
367,44406
353,44419
344,44431
335,44443
324,44455
313,44468
311,44480
312,44492
308,44507
300,44519
296,44531
291,44544
289,44556
323,44568
415,44580
444,44593
207,44605
115,44617
158,44632
178,44644
187,44656
186,44668
179,44681
175,44693
169,44705
162,44718
158,44730
160,44742
157,44754
149,44769
140,44781
136,44793
133,44806
129,44818
129,44830
131,44843
131,44855
128,44867
124,44879
130,44892
136,44906
138,44918
143,44931
153,44943
157,44955
156,44967
158,44980
164,44992
172,45004
174,45017
180,45031
190,45043
196,45056
199,45068
202,45080
210,45092
214,45105
219,45117
225,45129
240,45142
253,45154
260,45168
266,45180
276,45193
287,45205
299,45217
356,45230
480,45242
512,45254
276,45266
210,45279
272,45291
303,45305
322,45318
337,45330
353,45342
368,45355
377,45367
386,45379
400,45391
413,45404
419,45416
421,45430
427,45443
429,45455
429,45467
433,45479
444,45492
450,45504
450,45516
450,45529
452,45541
457,45553
458,45568
462,45580
468,45592
475,45604
477,45617
477,45629
483,45641
488,45654
487,45666
487,45678
492,45690
498,45705
499,45717
498,45729
505,45742
509,45754
509,45766
505,45778
514,45791
521,45803
526,45815
531,45830
538,45842
546,45854
545,45867
548,45879
565,45891
646,45903
718,45916
707,45928
419,45940
436,45953
510,45967
542,45979
563,45991
578,46004
585,46016
593,46028
608,46041
622,46053
627,46065
629,46077
634,46090
638,46104
636,46116
628,46129
631,46141
639,46153
642,46166
639,46178
639,46190
642,46202
642,46215
644,46229
651,46241
661,46254
662,46266
661,46278
666,46290
673,46303
669,46315
665,46327
666,46340
672,46352
670,46366
668,46379
668,46391
671,46403
671,46415
664,46428
666,46440
672,46452
673,46465
675,46477
680,46489
685,46503
684,46516
677,46528
687,46540
723,46553
835,46565
840,46577
623,46589
522,46602
622,46614
647,46628
662,46641
675,46653
683,46665
683,46678
690,46690
695,46702
697,46714
700,46727
699,46739
699,46751
692,46766
683,46778
679,46790
683,46802
686,46815
681,46827
677,46839
679,46852
677,46864
671,46876
669,46888
673,46903
675,46915
673,46927
673,46940
676,46952
673,46964
670,46977
667,46989
665,47001
665,47013
660,47028
655,47040
654,47052
651,47065
644,47077
638,47089
639,47101
634,47114
632,47126
632,47138
635,47151
633,47165
628,47177
627,47190
640,47202
703,47214
768,47226
751,47239
495,47251
487,47263
551,47276
575,47288
589,47302
597,47314
597,47327
599,47339
603,47351
605,47364
603,47376
601,47388
601,47400
598,47413
588,47427
578,47439
578,47452
583,47464
581,47476
577,47489
573,47501
570,47513
563,47525
555,47538
556,47550
560,47564
558,47577
556,47589
555,47601
555,47613
553,47626
548,47638
546,47650
546,47663
541,47675
533,47687
531,47702
530,47714
523,47726
516,47738
512,47751
511,47763
505,47775
506,47788
505,47800
500,47812
487,47826
472,47839
464,47851
471,47863
541,47876
606,47888
598,47900
342,47912
347,47925
394,47937
424,47949
445,47964
453,47976
455,47988
465,48001
477,48013
483,48025
486,48037
494,48050
502,48062
500,48074
493,48087
493,48101
499,48113
505,48125
504,48138
506,48150
508,48162
505,48175
503,48187
508,48199
517,48211
519,48226
513,48238
514,48250
515,48263
512,48275
507,48287
505,48300
509,48312
506,48324
501,48336
500,48349
503,48363
501,48375
498,48388
499,48400
503,48412
498,48424
490,48437
493,48449
497,48461
503,48474
503,48486
506,48500
510,48513
510,48525
514,48537
528,48549
645,48562
697,48574
656,48586
347,48599
386,48611
446,48625
470,48637
489,48650
505,48662
510,48674
511,48687
516,48699
526,48711
531,48723
530,48736
531,48748
534,48762
528,48775
521,48787
522,48799
527,48812
531,48824
525,48836
519,48848
522,48861
524,48873
522,48885
521,48900
525,48912
528,48924
522,48936
519,48949
519,48961
521,48973
519,48986
518,48998
521,49010
520,49025
513,49037
510,49049
511,49061
516,49074
515,49086
516,49098
517,49111
516,49123
513,49135
514,49147
519,49162
523,49174
524,49186
524,49199
528,49211
533,49223
540,49235
605,49248
691,49260
678,49272
366,49285
380,49299
451,49311
482,49324
498,49336
508,49348
522,49360
530,49373
534,49385
536,49397
542,49410
549,49424
548,49436
541,49448
535,49461
531,49473
528,49485
528,49498
535,49510
539,49522
535,49534
530,49547
530,49561
529,49573
526,49586
525,49598
527,49610
529,49623
528,49635
527,49647
530,49659
532,49672
531,49684
527,49698
527,49711
528,49723
526,49735
524,49747
527,49760
529,49772
525,49784
521,49797
517,49809
520,49823
518,49836
518,49848
525,49860
530,49872
528,49885
523,49897
524,49909
535,49922
585,49934
668,49946
683,49960
457,49973
379,49985
447,49997
483,50010
507,50022
519,50034
521,50046
529,50059
539,50071
545,50083
545,50098
547,50110
553,50122
554,50135
548,50147
542,50159
543,50171
544,50184
543,50196
542,50208
544,50223
539,50235
534,50247
536,50259
539,50272
541,50284
540,50296
541,50309
541,50321
540,50333
534,50345
535,50360
534,50372
533,50384
527,50397
528,50409
531,50421
528,50434
523,50446
521,50458
521,50470
514,50483
509,50497
510,50509
515,50522
521,50534
520,50546
520,50558
523,50571
523,50583
527,50595
552,50608
662,50622
692,50634
560,50647
355,50659
420,50671
459,50683
473,50696
488,50708
501,50720
511,50733
517,50745
521,50759
529,50771
536,50784
536,50796
534,50808
534,50821
531,50833
523,50845
522,50857
526,50870
529,50882
524,50896
519,50909
520,50921
521,50933
519,50946
518,50958
521,50970
523,50982
521,50995
521,51007
522,51021
523,51034
520,51046
517,51058
520,51070
519,51083
514,51095
509,51107
509,51120
506,51132
496,51144
495,51159
497,51171
504,51183
508,51195
507,51208
508,51220
507,51232
505,51245
515,51257
579,51269
666,51281
645,51296
360,51308
352,51320
422,51333
450,51345
469,51357
487,51369
499,51382
507,51394
511,51406
520,51421
526,51433
529,51445
526,51458
528,51470
526,51482
515,51494
508,51507
514,51519
519,51531
518,51544
514,51558
514,51570
515,51582
512,51595
508,51607
504,51619
499,51632
492,51644
489,51656
497,51668
508,51681
513,51695
517,51707
522,51720
523,51732
518,51744
511,51757
510,51769
510,51781
503,51793
499,51806
501,51820
505,51832
510,51845
513,51857
518,51869
524,51881
520,51894
526,51906
560,51918
665,51931
671,51943
471,51957
355,51970
426,51982
461,51994
479,52006
494,52019
506,52031
512,52043
511,52056
513,52068
514,52080
514,52094
510,52107
503,52119
501,52131
496,52144
493,52156
496,52168
502,52180
503,52193
501,52205
505,52219
506,52232
506,52244
505,52256
508,52269
515,52281
519,52293
513,52305
512,52318
513,52330
510,52342
506,52357
507,52369
511,52381
511,52393
507,52406
509,52418
512,52430
506,52443
493,52455
491,52467
495,52480
500,52494
503,52506
507,52518
514,52531
516,52543
514,52555
521,52568
586,52580
647,52592
636,52604
366,52619
376,52631
440,52643
468,52656
485,52668
502,52680
511,52692
513,52705
519,52717
530,52729
536,52742
538,52756
537,52768
537,52781
535,52793
531,52805
528,52817
531,52830
533,52842
528,52854
523,52867
520,52879
519,52893
519,52905
521,52918
526,52930
531,52942
529,52955
527,52967
527,52979
523,52992
518,53004
517,53018
519,53030
519,53043
516,53055
512,53067
511,53080
510,53092
503,53104
498,53116
502,53129
502,53141
503,53155
505,53168
510,53180
513,53192
507,53204
508,53217
525,53229
618,53241
665,53254
618,53266
336,53278
380,53293
427,53305
451,53317
475,53329
494,53342
501,53354
506,53366
513,53379
524,53391
528,53403
528,53417
532,53430
533,53442
527,53454
520,53467
524,53479
531,53491
531,53504
527,53516
525,53528
527,53540
525,53555
520,53567
521,53579
524,53592
525,53604
524,53616
524,53628
526,53641
525,53653
522,53665
522,53678
524,53692
520,53704
514,53716
511,53729
511,53741
507,53753
498,53766
498,53778
504,53790
504,53803
506,53817
507,53829
510,53841
508,53854
502,53866
510,53878
548,53891
636,53903
666,53915
480,53927
330,53940
398,53954
433,53966
457,53979
476,53991
484,54003
487,54016
496,54028
504,54040
507,54052
505,54065
504,54077
502,54091
495,54104
484,54116
480,54128
483,54140
484,54153
481,54165
478,54177
474,54190
472,54202
465,54216
465,54228
470,54241
472,54253
468,54265
465,54278
464,54290
459,54302
452,54315
449,54327
450,54339
447,54353
440,54366
436,54378
437,54390
430,54403
417,54415
416,54427
416,54439
418,54452
416,54464
416,54476
419,54491
421,54503
424,54515
443,54528
562,54540
606,54552
536,54564
246,54577
309,54589
355,54601
375,54616
390,54628
406,54640
419,54652
424,54665
428,54677
441,54689
447,54702
448,54714
445,54726
447,54738
445,54753
437,54765
436,54777
439,54790
444,54802
439,54814
434,54827
432,54839
432,54851
431,54863
433,54876
438,54890
443,54902
441,54915
438,54927
439,54939
440,54951
439,54964
438,54976
440,54988
442,55001
438,55015
434,55027
434,55040
432,55052
428,55064
426,55076
433,55089
443,55101
443,55113
444,55126
449,55138
452,55152
461,55164
500,55177
617,55189
612,55201
376,55214
296,55226
367,55238
403,55250
425,55263
439,55275
455,55289
472,55302
478,55314
485,55326
496,55339
503,55351
505,55363
503,55375
502,55388
497,55400
494,55414
495,55427
499,55439
500,55451
497,55463
491,55476
492,55488
495,55500
496,55513
499,55525
506,55537
513,55552
513,55564
510,55576
513,55588
513,55601
510,55613
507,55625
508,55638
511,55650
507,55662
502,55674
500,55689
503,55701
501,55713
505,55726
514,55738
520,55750
517,55762
516,55775
521,55787
539,55799
621,55814
684,55826
647,55838
385,55851
392,55863
452,55875
485,55887
509,55900
520,55912
525,55924
532,55937
542,55951
549,55963
551,55975
556,55988
561,56000
559,56012
548,56025
541,56037
543,56049
547,56061
550,56074
553,56088
558,56100
557,56113
559,56125
561,56137
567,56150
569,56162
567,56174
570,56186
573,56199
572,56213
570,56225
568,56238
566,56250
564,56262
560,56274
559,56287
563,56299
557,56311
550,56324
547,56336
550,56350
553,56363
553,56375
556,56387
562,56399
564,56412
571,56424
590,56436
707,56449
720,56461
571,56473
400,56487
483,56500
517,56512
531,56524
541,56537
552,56549
557,56561
556,56573
556,56586
560,56598
564,56612
562,56625
557,56637
555,56649
549,56662
539,56674
536,56686
540,56698
543,56711
540,56723
540,56735
543,56750
542,56762
538,56774
536,56786
542,56799
545,56811
540,56823
538,56836
541,56848
538,56860
529,56872
518,56887
511,56899
503,56911
489,56924
487,56936
491,56948
500,56961
507,56973
510,56985
524,56997
531,57012
526,57024
521,57036
522,57049
531,57061
549,57073
636,57085
672,57098
564,57110
352,57122
418,57135
467,57149
497,57161
511,57174
518,57186
526,57198
531,57210
536,57223
538,57235
546,57247
549,57260
546,57272
538,57286
533,57298
528,57311
527,57323
524,57335
526,57348
527,57360
523,57372
519,57384
524,57397
531,57411
529,57423
527,57436
532,57448
533,57460
528,57473
522,57485
522,57497
524,57509
521,57522
515,57534
516,57548
518,57561
515,57573
510,57585
513,57597
517,57610
513,57622
507,57634
508,57647
511,57659
513,57671
512,57686
514,57698
520,57710
519,57722
519,57735
530,57747
597,57759
660,57772
655,57784
367,57796
366,57810
436,57823
466,57835
486,57847
502,57860
509,57872
510,57884
515,57896
520,57909
526,57921
532,57933
537,57948
543,57960
541,57972
536,57985
537,57997
541,58009
541,58021
536,58034
533,58046
532,58058
529,58071
524,58085
523,58097
529,58109
532,58122
533,58134
537,58146
543,58159
544,58171
543,58183
546,58195
551,58210
550,58222
544,58234
543,58247
544,58259
543,58271
536,58284
533,58296
532,58308
529,58320
527,58333
527,58347
534,58359
537,58372
533,58384
531,58396
534,58408
538,58421
544,58433
613,58445
688,58458
673,58470
372,58484
394,58497
458,58509
487,58521
498,58533
510,58546
520,58558
528,58570
528,58583
530,58595
536,58609
537,58621
532,58634
527,58646
523,58658
520,58671
518,58683
523,58695
529,58707
529,58720
522,58732
517,58746
518,58759
519,58771
515,58783
514,58796
519,58808
522,58820
520,58832
516,58845
519,58857
521,58869
517,58884
509,58896
513,58908
514,58920
511,58933
506,58945
508,58957
509,58970
505,58982
499,58994
500,59009
503,59021
498,59033
496,59045
499,59058
502,59070
504,59082
503,59095
505,59107
508,59119
507,59131
512,59146
539,59158
639,59170
668,59183
552,59195
362,59207
421,59219
455,59232
479,59244
499,59256
510,59269
514,59283
516,59295
524,59308
527,59320
527,59332
527,59344
530,59357
530,59369
524,59381
519,59394
524,59408
530,59420
529,59432
524,59445
525,59457
525,59469
522,59482
517,59494
520,59506
523,59518
522,59531
519,59545
520,59557
523,59570
521,59582
517,59594
517,59607
518,59619
514,59631
509,59643
507,59656
511,59668
512,59682
509,59695
509,59707
509,59719
504,59731
498,59744
496,59756
502,59768
505,59781
505,59793
508,59807
511,59820
517,59832
527,59844
646,59856
690,59869
629,59881
338,59893
438,59906
483,59918
496,59930
503,59944
512,59957
521,59969
525,59981
526,59994
533,60006
541,60018
543,60030
539,60043
534,60055
531,60067
524,60082
517,60094
520,60106
527,60119
526,60131
521,60143
520,60155
521,60168
523,60180
519,60192
520,60207
526,60219
531,60231
529,60243
528,60256
530,60268
529,60280
524,60293
519,60305
522,60317
521,60329
517,60344
512,60356
514,60368
519,60381
517,60393
515,60405
512,60418
511,60430
509,60442
507,60454
514,60467
519,60481
517,60493
514,60506
514,60518
519,60530
531,60542
677,60555
705,60567
627,60579
338,60592
415,60606
472,60618
493,60631
500,60643
506,60655
517,60667
521,60680
519,60692
522,60704
529,60717
533,60729
529,60743
523,60755
520,60768
517,60780
513,60792
514,60805
518,60817
519,60829
514,60841
510,60854
511,60866
513,60880
509,60893
505,60905
506,60917
505,60930
500,60942
495,60954
497,60966
499,60979
497,60991
493,61005
493,61018
492,61030
486,61042
480,61054
480,61067
482,61079
477,61091
471,61104
473,61116
475,61128
478,61143
478,61155
482,61167
484,61179
481,61192
487,61204
505,61216
583,61229
627,61241
599,61253
353,61265
380,61280
425,61292
450,61304
468,61317
484,61329
493,61341
496,61353
502,61366
512,61378
513,61390
511,61405
512,61417
512,61429
507,61442
499,61454
501,61466
505,61478
504,61491
501,61503
500,61515
500,61528
497,61542
495,61554
497,61566
502,61579
504,61591
502,61603
504,61616
507,61628
503,61640
498,61652
498,61665
500,61679
494,61691
489,61704
491,61716
493,61728
490,61741
486,61753
490,61765
492,61777
487,61790
478,61804
474,61816
476,61829
474,61841
475,61853
481,61865
489,61878
492,61890
490,61902
497,61915
517,61927
604,61941
630,61954
539,61966
334,61978
386,61990
422,62003
451,62015
472,62027
485,62040
490,62052
495,62064
505,62078
516,62091
522,62103
529,62115
531,62128
527,62140
515,62152
509,62164
512,62177
517,62189
514,62203
514,62216
516,62228
516,62240
515,62253
520,62265
528,62277
530,62289
527,62302
526,62314
527,62326
525,62341
521,62353
523,62365
527,62377
526,62390
523,62402
522,62414
524,62427
522,62439
517,62451
516,62464
519,62478
516,62490
506,62502
506,62515
510,62527
513,62539
514,62552
514,62564
519,62576
520,62588
516,62603
521,62615
563,62627
652,62640
668,62652
485,62664
369,62676
433,62689
464,62701
482,62713
501,62726
512,62740
516,62752
520,62765
528,62777
533,62789
533,62801
533,62814
533,62826
531,62838
523,62851
517,62863
524,62877
531,62889
530,62902
526,62914
527,62926
527,62939
522,62951
524,62963
531,62976
535,62988
532,63002
530,63014
533,63027
535,63039
530,63051
528,63064
529,63076
531,63088
526,63100
521,63113
519,63125
517,63139
513,63152
506,63164
508,63176
506,63188
500,63201
499,63213
503,63225
510,63238
511,63250
509,63262
511,63277
516,63289
520,63301
536,63313
626,63326
669,63338
587,63350
347,63363
414,63375
467,63387
491,63401
505,63414
517,63426
523,63438
525,63451
527,63463
536,63475
541,63488
540,63500
541,63512
542,63524
539,63539
531,63551
526,63563
529,63576
531,63588
526,63600
521,63612
521,63625
524,63637
522,63649
521,63662
525,63676
530,63688
528,63700
525,63713
526,63725
530,63737
529,63750
524,63762
524,63774
524,63787
522,63801
517,63813
514,63825
514,63838
512,63850
507,63862
504,63875
508,63887
507,63899
508,63911
511,63924
519,63938
519,63950
517,63963
525,63975
547,63987
649,64000
675,64012
549,64024
347,64036
422,64049
465,64061
490,64075
505,64088
509,64100
507,64112
511,64124
516,64137
520,64149
521,64161
528,64174
530,64186
527,64200
518,64212
513,64225
512,64237
512,64249
513,64262
514,64274
517,64286
514,64299
508,64311
509,64323
513,64337
514,64350
513,64362
514,64374
521,64387
520,64399
517,64411
515,64423
512,64436
510,64448
503,64460
500,64475
504,64487
501,64499
496,64512
494,64524
497,64536
494,64548
494,64561
497,64573
506,64585
510,64600
508,64612
514,64624
535,64636
642,64649
678,64661
594,64673
352,64686
398,64698
442,64710
467,64722
488,64737
501,64749
505,64761
508,64774
509,64786
514,64798
515,64811
515,64823
520,64835
519,64847
510,64860
499,64874
500,64886
503,64899
502,64911
502,64923
505,64935
503,64948
499,64960
497,64972
498,64985
499,64999
497,65011
499,65024
503,65036
502,65048
497,65060
491,65073
489,65085
488,65097
477,65110
472,65122
476,65136
477,65148
477,65161
472,65173
476,65185
472,65198
465,65210
463,65222
461,65234
467,65247
468,65259
470,65273
476,65286
479,65298
485,65310
512,65323
614,65335
632,65347
487,65359
335,65372
413,65384
453,65398
473,65411
484,65423
494,65435
503,65447
508,65460
513,65472
525,65484
532,65497
534,65509
531,65521
528,65536
523,65548
516,65560
516,65572
522,65585
526,65597
521,65609
512,65622
512,65634
513,65646
512,65658
512,65673
518,65685
526,65697
525,65710
522,65722
521,65734
522,65746
520,65759
513,65771
514,65783
514,65798
514,65810
514,65822
514,65835
516,65847
511,65859
505,65871
500,65884
503,65896
501,65908
501,65921
508,65935
513,65947
510,65959
506,65972
509,65984
520,65996
560,66009
644,66021
658,66033
466,66045
358,66058
415,66072
453,66084
481,66097
498,66109
504,66121
511,66134
520,66146
522,66158
521,66170
523,66183
530,66197
531,66209
526,66222
525,66234
527,66246
530,66258
529,66271
529,66283
529,66295
525,66308
519,66320
520,66334
526,66347
529,66359
529,66371
530,66383
530,66396
527,66408
518,66420
517,66433
519,66445
519,66457
516,66471
516,66484
519,66496
519,66508
515,66521
513,66533
516,66545
514,66557
511,66570
515,66582
519,66596
524,66609
523,66621
523,66633
525,66646
524,66658
528,66670
557,66682
655,66695
676,66707
486,66719
369,66734
434,66746
472,66758
492,66770
507,66783
517,66795
521,66807
522,66820
524,66832
532,66844
535,66856
535,66871
536,66883
537,66895
533,66908
526,66920
524,66932
529,66945
532,66957
527,66969
522,66981
524,66996
528,67008
529,67020
527,67033
533,67045
536,67057
530,67069
526,67082
529,67094
530,67106
525,67119
520,67133
521,67145
523,67158
520,67170
515,67182
518,67194
519,67207
518,67219
511,67231
513,67244
515,67256
511,67270
515,67282
523,67295
524,67307
524,67319
520,67332
529,67344
554,67356
649,67368
688,67381
584,67395
354,67407
410,67420
457,67432
487,67444
507,67457
512,67469
518,67481
527,67493
535,67506
534,67518
532,67532
538,67545
543,67557
537,67569
531,67581
527,67594
527,67606
528,67618
523,67631
525,67643
527,67655
522,67670
517,67682
518,67694
523,67706
521,67719
517,67731
518,67743
524,67756
521,67768
517,67780
517,67794
517,67807
512,67819
507,67831
506,67844
505,67856
502,67868
497,67880
493,67893
494,67905
492,67917
490,67932
496,67944
503,67956
500,67969
495,67981
495,67993
492,68005
501,68018
562,68030
550,68042
329,68055
221,68069
278,68081
312,68093
337,68106
345,68118
350,68130
359,68143
368,68155
373,68167
376,68179
387,68194
400,68206
405,68218
401,68231
397,68243
400,68255
401,68268
400,68280
402,68292
408,68304
409,68317
407,68331
409,68343
415,68356
417,68368
422,68380
430,68392
436,68405
437,68417
438,68429
441,68442
448,68454
450,68468
446,68481
444,68493
448,68505
451,68517
450,68530
451,68542
455,68554
448,68567
443,68579
445,68593
451,68605
455,68618
455,68630
459,68642
468,68655
469,68667
476,68679
517,68691
627,68704
631,68716
400,68730
308,68743
390,68755
424,68767
444,68780
457,68792
473,68804
482,68816
483,68829
488,68841
500,68853
508,68868
507,68880
505,68892
502,68904
496,68917
488,68929
488,68941
499,68954
503,68966
500,68978
499,68993
501,69005
500,69017
498,69029
496,69042
503,69054
508,69066
507,69079
506,69091
509,69103
509,69115
506,69130
503,69142
502,69154
505,69167
501,69179
500,69191
505,69203
509,69216
505,69228
501,69240
498,69253
496,69267
493,69279
497,69292
506,69304
509,69316
506,69328
507,69341
516,69353
528,69365
606,69378
663,69392
638,69404
380,69416
397,69429
448,69441
476,69453
495,69466
501,69478
510,69490
519,69502
526,69515
530,69529
531,69541
536,69554
540,69566
535,69578
527,69591
526,69603
533,69615
534,69627
534,69640
539,69652
540,69666
536,69679
529,69691
531,69703
539,69715
541,69728
539,69740
546,69752
555,69765
558,69777
562,69791
567,69804
574,69816
576,69828
577,69840
582,69853
586,69865
588,69877
587,69890
592,69902
600,69914
599,69928
597,69941
601,69953
605,69965
607,69978
603,69990
600,70002
602,70014
597,70027
600,70039
618,70051
730,70066
767,70078
692,70090
424,70103
496,70115
540,70127
557,70139
573,70152
583,70164
586,70176
586,70191
588,70203
595,70215
598,70227
598,70240
600,70252
601,70264
591,70277
580,70289
579,70301
582,70313
582,70328
574,70340
573,70352
578,70365
582,70377
582,70389
586,70402
589,70414
585,70426
571,70438
561,70451
560,70465
557,70477
554,70490
557,70502
559,70514
558,70526
555,70539
556,70551
555,70563
550,70576
542,70590
538,70602
540,70615
538,70627
534,70639
539,70651
541,70664
543,70676
541,70688
538,70701
536,70713
531,70727
523,70739
533,70752
631,70764
686,70776
643,70789
359,70801
404,70813
466,70825
483,70838
496,70850
507,70864
512,70877
511,70889
508,70901
509,70914
513,70926
512,70938
510,70950
509,70963
502,70975
489,70989
487,71002
493,71014
498,71026
494,71038
488,71051
486,71063
483,71075
477,71088
472,71100
472,71112
474,71127
472,71139
472,71151
474,71163
470,71176
464,71188
460,71200
459,71213
455,71225
450,71237
448,71249
452,71264
452,71276
451,71288
449,71301
450,71313
450,71325
445,71337
449,71350
456,71362
459,71374
457,71389
455,71401
455,71413
453,71426
447,71438
451,71450
511,71462
622,71475
624,71487
372,71499
299,71512
381,71526
404,71538
424,71550
445,71563
465,71575
474,71587
480,71600
490,71612
503,71624
507,71636
507,71649
509,71663
510,71675
504,71688
497,71700
498,71712
501,71725
499,71737
496,71749
496,71761
500,71774
500,71788
498,71800
502,71813
506,71825
504,71837
497,71849
496,71862
499,71874
496,71886
493,71899
492,71911
495,71925
494,71938
491,71950
491,71962
492,71974
490,71987
490,71999
495,72011
499,72024
492,72036
487,72048
487,72062
490,72075
491,72087
491,72099
496,72112
499,72124
502,72136
506,72148
526,72161
654,72173
682,72187
571,72200
341,72212
399,72224
437,72237
460,72249
474,72261
485,72273
492,72286
494,72298
500,72310
505,72325
510,72337
510,72349
517,72361
521,72374
516,72386
509,72398
510,72411
515,72423
514,72435
513,72448
514,72462
519,72474
516,72486
514,72499
514,72511
521,72523
521,72536
517,72548
520,72560
521,72572
521,72587
520,72599
518,72611
517,72624
516,72636
508,72648
506,72660
512,72673
513,72685
511,72697
511,72710
511,72724
506,72736
500,72749
502,72761
507,72773
515,72785
514,72798
514,72810
518,72822
521,72835
525,72847
541,72861
653,72873
681,72886
586,72898
356,72910
413,72923
456,72935
479,72947
493,72960
503,72972
514,72986
515,72998
514,73011
519,73023
522,73035
522,73048
519,73060
515,73072
508,73084
499,73097
495,73109
498,73123
502,73136
494,73148
487,73160
487,73172
484,73185
481,73197
481,73209
487,73222
494,73234
493,73246
491,73261
494,73273
494,73285
491,73297
490,73310
489,73322
487,73334
480,73347
476,73359
480,73371
483,73385
479,73398
477,73410
483,73422
487,73435
482,73447
474,73459
474,73472
474,73484
473,73496
471,73508
475,73523
481,73535
481,73547
483,73560
492,73572
521,73584
607,73596
624,73609
498,73621
322,73633
382,73646
414,73660
442,73672
460,73684
464,73697
471,73709
477,73721
482,73734
481,73746
481,73758
489,73771
492,73785
486,73797
479,73809
476,73822
477,73834
478,73846
481,73859
484,73871
484,73883
483,73895
480,73908
480,73922
480,73934
479,73947
477,73959
484,73971
488,73984
490,73996
489,74008
492,74020
498,74033
497,74045
491,74059
491,74072
491,74084
491,74096
487,74108
488,74121
489,74133
485,74145
480,74158
475,74170
480,74184
478,74196
482,74209
488,74221
490,74233
489,74246
486,74258
489,74270
502,74283
576,74295
639,74307
630,74321
379,74334
368,74346
421,74358
451,74371
468,74383
477,74395
478,74407
485,74420
492,74432
495,74444
499,74459
507,74471
514,74483
511,74496
505,74508
504,74520
509,74532
513,74545
510,74557
510,74569
507,74584
502,74596
496,74608
495,74620
503,74633
505,74645
502,74657
501,74670
504,74682
502,74694
496,74706
492,74721
491,74733
487,74745
479,74758
475,74770
475,74782
473,74795
469,74807
468,74819
472,74831
471,74844
468,74858
468,74870
469,74883
473,74895
471,74907
475,74919
481,74932
484,74944
485,74956
486,74969
493,74983
504,74995
568,75008
639,75020
625,75032
359,75044
361,75057
421,75069
449,75081
471,75094
480,75106
487,75120
496,75132
501,75145
504,75157
510,75169
522,75182
530,75194
528,75206
525,75218
526,75231
528,75243
529,75257
530,75270
538,75282
538,75294
532,75307
528,75319
531,75331
532,75343
532,75356
530,75368
536,75382
541,75395
540,75407
540,75419
543,75431
544,75444
540,75456
536,75468
538,75481
542,75493
540,75505
537,75520
540,75532
541,75544
535,75556
530,75569
531,75581
530,75593
531,75606
530,75618
536,75630
544,75642
543,75657
542,75669
542,75681
545,75694
553,75706
593,75718
680,75730
684,75743
465,75755
396,75767
465,75782
497,75794
513,75806
524,75819
535,75831
545,75843
547,75855
550,75868
556,75880
565,75892
566,75905
563,75919
562,75931
557,75943
551,75956
547,75968
550,75980
550,75993
545,76005
537,76017
536,76029
539,76042
538,76056
536,76068
539,76081
544,76093
540,76105
532,76118
529,76130
533,76142
532,76154
528,76167
526,76181
526,76193
523,76206
517,76218
514,76230
514,76242
513,76255
509,76267
505,76279
502,76292
501,76304
498,76318
504,76331
513,76343
516,76355
515,76367
517,76380
525,76392
540,76404
620,76417
679,76429
635,76441
371,76455
404,76468
461,76480
488,76492
502,76505
511,76517
531,76529
548,76541
556,76554
561,76566
568,76580
580,76593
583,76605
578,76617
573,76630
571,76642
567,76654
562,76666
562,76679
567,76691
567,76703
561,76718
558,76730
562,76742
562,76754
559,76767
558,76779
563,76791
563,76804
558,76816
558,76828
564,76840
563,76855
560,76867
557,76879
558,76892
560,76904
561,76916
557,76929
558,76941
553,76953
542,76965
537,76980
536,76992
540,77004
541,77017
543,77029
545,77041
553,77053
560,77066
586,77078
698,77090
708,77103
567,77117
401,77129
461,77142
490,77154
508,77166
523,77178
537,77191
549,77203
548,77215
550,77228
556,77240
562,77254
560,77266
556,77279
552,77291
544,77303
534,77316
528,77328
533,77340
531,77352
524,77365
517,77379
514,77391
511,77404
504,77416
499,77428
503,77441
507,77453
507,77465
506,77477
509,77490
509,77502
507,77516
501,77529
496,77541
493,77553
489,77565
487,77578
490,77590
492,77602
489,77615
482,77627
483,77639
483,77654
482,77666
485,77678
489,77690
493,77703
490,77715
486,77727
498,77740
533,77752
607,77764
622,77778
477,77791
342,77803
391,77815
420,77828
445,77840
460,77852
465,77864
469,77877
481,77889
491,77901
495,77916
498,77928
502,77940
504,77953
497,77965
485,77977
482,77989
485,78002
486,78014
481,78026
480,78039
479,78053
473,78065
467,78077
467,78090
474,78102
473,78114
470,78127
471,78139
472,78151
468,78163
463,78178
466,78190
470,78202
469,78215
467,78227
468,78239
467,78252
463,78264
458,78276
457,78288
458,78301
454,78315
446,78327
445,78340
442,78352
441,78364
436,78376
434,78389
431,78401
427,78413
429,78426
455,78438
568,78452
596,78465
473,78477
295,78489
356,78501
385,78514
404,78526
427,78538
446,78551
461,78563
466,78577
473,78589
482,78602
490,78614
491,78626
496,78639
503,78651
500,78663
495,78675
498,78688
505,78700
510,78714
509,78727
507,78739
508,78751
508,78764
504,78776
504,78788
506,78800
504,78813
500,78825
497,78837
501,78852
504,78864
504,78876
507,78888
512,78901
512,78913
507,78925
510,78938
514,78950
516,78962
512,78977
510,78989
513,79001
515,79013
514,79026
519,79038
525,79050
527,79063
521,79075
521,79087
533,79099
589,79114
670,79126
675,79138
452,79151
379,79163
438,79175
468,79187
493,79200
510,79212
515,79224
521,79237
528,79251
534,79263
538,79276
542,79288
555,79300
556,79312
551,79325
544,79337
543,79349
544,79362
537,79376
528,79388
524,79400
523,79413
521,79425
520,79437
527,79450
532,79462
534,79474
537,79486
541,79499
543,79513
541,79525
542,79538
543,79550
544,79562
540,79575
533,79587
533,79599
532,79611
529,79624
527,79636
528,79650
526,79663
524,79675
521,79687
528,79699
532,79712
527,79724
527,79736
532,79749
539,79761
549,79775
617,79788
686,79800
648,79812
370,79824
393,79837
460,79849
493,79861
509,79874
520,79886
533,79898
542,79912
542,79925
541,79937
545,79949
551,79962
552,79974
547,79986
545,79998
540,80011
536,80023
536,80035
541,80050
545,80062
545,80074
542,80087
543,80099
544,80111
543,80123
539,80136
543,80148
546,80160
546,80175
542,80187
543,80199
545,80211
539,80224
532,80236
531,80248
531,80261
527,80273
522,80285
525,80297
524,80312
519,80324
518,80336
520,80349
525,80361
526,80373
524,80386
528,80398
531,80410
534,80422
542,80435
623,80449
687,80461
630,80474
357,80486
395,80498
458,80510
481,80523
491,80535
499,80547
509,80560
515,80574
514,80586
516,80599
525,80611
529,80623
525,80635
525,80648
523,80660
514,80672
505,80685
504,80697
505,80711
502,80723
497,80736
497,80748
498,80760
495,80773
491,80785
491,80797
493,80809
487,80822
479,80834
475,80848
471,80861
469,80873
461,80885
457,80898
457,80910
454,80922
449,80934
450,80947
457,80959
458,80973
454,80986
455,80998
459,81010
463,81022
465,81035
462,81047
461,81059
453,81072
447,81084
460,81096
547,81111
630,81123
597,81135
312,81147
323,81160
383,81172
411,81184
435,81197
456,81209
466,81221
470,81233
476,81248
482,81260
483,81272
482,81285
482,81297
485,81309
480,81321
469,81334
463,81346
469,81358
474,81373
472,81385
470,81397
474,81410
476,81422
474,81434
473,81446
477,81459
478,81471
473,81483
468,81496
470,81510
468,81522
463,81534
456,81547
455,81559
452,81571
443,81584
435,81596
443,81608
449,81620
445,81633
447,81647
453,81659
461,81672
463,81684
460,81696
456,81709
451,81721
446,81733
449,81745
514,81758
584,81772
563,81784
281,81797
282,81809
331,81821
355,81833
371,81846
383,81858
397,81870
401,81883
405,81895
412,81909
419,81922
424,81934
427,81946
431,81958
429,81971
421,81983
415,81995
416,82008
416,82020
410,82032
408,82046
408,82059
409,82071
407,82083
406,82096
411,82108
417,82120
418,82132
418,82145
423,82157
430,82171
436,82184
439,82196
444,82208
450,82221
449,82233
441,82245
439,82257
435,82270
431,82282
426,82294
429,82309
438,82321
440,82333
439,82345
443,82358
449,82370
461,82382
488,82395
570,82407
578,82419
434,82432
299,82446
355,82458
392,82470
416,82483
431,82495
445,82507
458,82520
462,82532
460,82544
466,82556
472,82571
475,82583
472,82595
470,82608
467,82620
461,82632
459,82644
462,82657
464,82669
460,82681
452,82694
450,82708
447,82720
445,82733
439,82745
436,82757
437,82769
433,82782
424,82794
419,82806
417,82819
412,82831
403,82845
395,82857
395,82870
390,82882
384,82894
379,82907
382,82919
378,82931
373,82944
369,82956
372,82970
375,82982
371,82995
370,83007
370,83019
372,83032
382,83044
428,83056
513,83068
521,83081
285,83093
228,83107
270,83120
288,83132
298,83144
306,83156
313,83169
314,83181
311,83193
314,83206
321,83218
321,83230
317,83245
309,83257
301,83269
291,83281
279,83294
273,83306
274,83318
269,83331
257,83343
247,83355
247,83369
242,83382
235,83394
231,83406
234,83419
232,83431
226,83443
222,83456
225,83468
227,83480
224,83492
221,83507
220,83519
219,83531
214,83544
208,83556
210,83568
211,83580
210,83593
207,83605
211,83617
216,83630
217,83644
225,83656
236,83668
248,83681
254,83693
259,83705
273,83718
302,83730
420,83742
499,83755
435,83769
191,83781
235,83793
272,83806
297,83818
317,83830
328,83843
337,83855
352,83867
365,83879
377,83892
388,83906
406,83918
415,83931
418,83943
415,83955
417,83968
424,83980
429,83992
439,84004
449,84017
455,84029
457,84043
460,84056
468,84068
474,84080
480,84092
483,84105
492,84117
501,84129
507,84142
509,84154
513,84168
521,84180
521,84193
518,84205
524,84217
529,84230
532,84242
531,84254
529,84267
535,84279
539,84291
540,84305
551,84318
563,84330
571,84342
575,84355
582,84367
595,84379
621,84391
719,84404
757,84416
642,84428
426,84443
495,84455
540,84467
568,84480
581,84492
588,84504
600,84516
612,84529
616,84541
623,84553
632,84568
642,84580
645,84592
641,84604
639,84617
640,84629
639,84641
639,84654
643,84666
644,84678
639,84690
633,84705
633,84717
638,84729
638,84742
636,84754
639,84766
644,84779
643,84791
640,84803
641,84815
645,84828
643,84842
638,84854
636,84867
638,84879
637,84891
633,84903
632,84916
632,84928
626,84940
622,84953
619,84967
625,84979
630,84992
627,85004
628,85016
633,85028
635,85041
642,85053
707,85065
777,85078
755,85090
476,85104
506,85116
581,85129
605,85141
614,85153
621,85166
634,85178
638,85190
641,85202
649,85215
657,85227
660,85241
652,85254
639,85266
632,85278
624,85291
614,85303
615,85315
616,85327
614,85340
607,85352
601,85366
601,85379
598,85391
590,85403
584,85415
587,85428
588,85440
581,85452
575,85465
574,85477
572,85489
565,85504
556,85516
553,85528
552,85540
546,85553
538,85565
535,85577
527,85590
513,85602
505,85614
501,85626
503,85641
501,85653
496,85665
499,85678
496,85690
491,85702
503,85714
603,85727
655,85739
575,85751
280,85766
339,85778
395,85790
417,85803
430,85815
442,85827
448,85839
452,85852
457,85864
466,85876
468,85889
464,85903
461,85915
459,85927
452,85940
439,85952
433,85964
437,85977
442,85989
438,86001
431,86013
433,86026
435,86040
428,86052
424,86065
430,86077
437,86089
438,86102
437,86114
435,86126
434,86138
430,86151
423,86165
425,86177
430,86190
432,86202
432,86214
434,86226
435,86239
427,86251
422,86263
423,86276
426,86288
431,86302
434,86315
440,86327
447,86339
451,86351
461,86364
496,86376
626,86388
635,86401
429,86413
304,86425
375,86439
407,86452
427,86464
448,86476
465,86489
473,86501
479,86513
490,86525
501,86538
505,86550
505,86564
506,86577
504,86589
499,86601
494,86614
499,86626
509,86638
510,86650
503,86663
505,86675
512,86687
510,86702
509,86714
512,86726
517,86738
518,86751
519,86763
520,86775
526,86788
525,86800
526,86812
526,86824
527,86839
530,86851
530,86863
534,86876
536,86888
529,86900
523,86913
521,86925
530,86937
534,86949
533,86964
537,86976
547,86988
555,87001
567,87013
672,87025
715,87037
645,87050
375,87062
427,87074
480,87087
499,87101
508,87113
517,87126
529,87138
538,87150
543,87162
551,87175
557,87187
561,87199
554,87212
551,87224
547,87238
544,87250
542,87263
542,87275
546,87287
546,87300
542,87312
538,87324
537,87336
537,87349
537,87363
535,87375
537,87388
539,87400
538,87412
536,87425
538,87437
537,87449
527,87461
523,87474
518,87486
514,87500
506,87513
499,87525
494,87537
488,87549
481,87562
483,87574
487,87586
482,87599
477,87611
475,87623
484,87638
514,87650
604,87662
611,87674
436,87687
299,87699
342,87711
371,87724
392,87736
403,87748
400,87762
393,87775
387,87787
382,87799
371,87812
361,87824
353,87836
346,87848
327,87861
306,87873
291,87885
280,87900
266,87912
248,87924
237,87937
224,87949
204,87961
189,87973
178,87986
168,87998
155,88010
144,88023
136,88037
128,88049
116,88061
101,88074
89,88086
79,88098
60,88109
48,88121
40,88131
25,88143
17,88154
10,88166
6,88178
4,88188
3,88199
2,88209
2,88219
1,88229
1,88240
1,88250
1,88260
1,88270
1,88281
19,88293
62,88303
47,88315
27,88326
16,88338
10,88348
6,88360
4,88371
3,88381
2,88391
2,88401
1,88412
1,88422
1,88434
1,88444
1,88455
0,88465
0,88475
1,88485
0,88496
0,88506
1,88516
0,88526
1,88537
0,88547
0,88559
1,88569
0,88580
1,88590
0,88600
0,88610
1,88621
1,88631
0,88641
1,88651
16,88662
31,88674
47,88684
70,88696
84,88709
100,88719
123,88731
143,88743
156,88758
175,88770
199,88782
215,88795
230,88807
243,88819
261,88832
280,88844
291,88856
311,88868
336,88881
351,88895
361,88907
377,88920
404,88932
440,88944
533,88956
584,88969
564,88981
356,88993
395,89006
443,89018
476,89032
497,89044
507,89057
518,89069
533,89081
546,89094
554,89106
563,89118
577,89131
586,89143
585,89157
587,89169
594,89182
602,89194
605,89206
611,89219
619,89231
626,89243
628,89255
632,89268
640,89280
649,89294
652,89307
657,89319
668,89331
676,89344
681,89356
686,89368
697,89380
705,89393
707,89405
708,89417
714,89432
718,89444
719,89456
722,89468
732,89481
741,89493
746,89505
747,89518
754,89530
760,89542
763,89556
763,89569
770,89581
776,89593
777,89606
776,89618
779,89630
785,89643
787,89655
791,89667
799,89679
805,89694
807,89706
807,89718
815,89731
831,89743
898,89755
941,89767
936,89780
710,89792
748,89804
804,89817
819,89831
831,89843
834,89856
835,89868
843,89880
846,89892
849,89905
851,89917
857,89929
860,89942
855,89956
848,89968
850,89980
854,89993
856,90005
856,90017
862,90030
867,90042
862,90054
855,90066
853,90079
852,90093
849,90105
845,90118
847,90130
850,90142
848,90155
841,90167
839,90179
836,90191
831,90204
822,90216
821,90230
821,90243
817,90255
810,90267
807,90279
807,90292
802,90304
793,90316
790,90329
790,90341
787,90355
778,90368
776,90380
776,90392
770,90404
761,90417
756,90429
755,90441
752,90454
743,90466
738,90478
736,90492
730,90505
718,90517
713,90529
711,90542
709,90554
703,90566
701,90578
699,90591
694,90603
685,90615
688,90630
725,90642
785,90654
802,90667
624,90679
535,90691
596,90703
614,90716
625,90728
633,90740
635,90755
632,90767
634,90779
638,90791
639,90804
637,90816
635,90828
635,90841
627,90853
611,90865
600,90877
602,90892
606,90904
604,90916
602,90929
603,90941
601,90953
591,90966
587,90978
588,90990
587,91002
582,91015
579,91029
579,91041
576,91054
570,91066
566,91078
566,91090
565,91103
557,91115
549,91127
546,91140
543,91154
534,91166
528,91179
527,91191
525,91203
520,91215
515,91228
516,91240
517,91252
510,91265
507,91277
508,91291
505,91303
501,91316
499,91328
499,91340
498,91353
493,91365
492,91377
497,91389
498,91402
491,91414
486,91428
487,91441
492,91453
504,91465
582,91478
626,91490
591,91502
342,91514
380,91527
427,91539
451,91553
463,91566
470,91578
478,91590
486,91602
488,91615
488,91627
495,91639
503,91652
502,91664
496,91676
491,91691
484,91703
475,91715
470,91727
473,91740
474,91752
470,91764
468,91777
471,91789
472,91801
469,91813
467,91828
472,91840
475,91852
472,91865
471,91877
475,91889
479,91901
477,91914
470,91926
472,91938
472,91953
468,91965
465,91977
468,91990
471,92002
470,92014
468,92026
471,92039
475,92051
473,92063
468,92076
471,92090
473,92102
472,92114
469,92127
470,92139
474,92151
471,92164
466,92176
467,92188
473,92200
479,92213
479,92227
482,92239
484,92252
484,92264
482,92276
493,92289
564,92301
642,92313
628,92325
393,92338
360,92352
416,92364
441,92377
462,92389
480,92401
491,92413
498,92426
505,92438
512,92450
516,92463
516,92475
520,92489
523,92502
520,92514
511,92526
508,92538
511,92551
511,92563
507,92575
507,92588
510,92600
508,92612
504,92626
506,92639
514,92651
514,92663
512,92676
514,92688
517,92700
518,92712
513,92725
511,92737
511,92751
510,92764
506,92776
504,92788
508,92801
504,92813
501,92825
503,92837
508,92850
514,92862
510,92874
507,92889
510,92901
509,92913
505,92925
504,92938
509,92950
510,92962
507,92975
506,92987
514,92999
517,93011
517,93026
518,93038
520,93050
522,93063
527,93075
561,93087
670,93100
676,93112
494,93124
377,93136
433,93151
459,93163
477,93175
490,93188
504,93200
513,93212
517,93224
523,93237
531,93249
540,93261
540,93274
540,93288
541,93300
536,93313
524,93325
519,93337
520,93349
520,93362
515,93374
511,93386
513,93399
514,93411
510,93425
508,93437
514,93450
518,93462
517,93474
513,93487
517,93499
519,93511
518,93523
515,93536
516,93550
517,93562
512,93575
507,93587
506,93599
507,93612
504,93624
500,93636
502,93648
506,93661
503,93673
501,93687
501,93700
501,93712
496,93724
492,93736
491,93749
490,93761
484,93773
480,93786
483,93798
484,93810
483,93825
483,93837
488,93849
498,93861
511,93874
597,93886
624,93898
566,93911
320,93923
368,93935
416,93949
446,93962
464,93974
473,93986
484,93999
492,94011
494,94023
494,94035
499,94048
505,94060
501,94072
493,94087
489,94099
487,94111
479,94124
473,94136
476,94148
478,94160
476,94173
472,94185
470,94197
472,94210
471,94224
471,94236
475,94248
482,94261
483,94273
483,94285
483,94298
484,94310
482,94322
477,94334
476,94349
479,94361
479,94373
477,94386
479,94398
482,94410
481,94423
479,94435
481,94447
485,94459
486,94472
484,94486
485,94498
490,94511
494,94523
490,94535
490,94547
494,94560
492,94572
492,94584
509,94597
595,94609
641,94623
614,94636
358,94648
378,94660
429,94672
455,94685
474,94697
489,94709
497,94722
499,94734
505,94748
512,94760
516,94773
519,94785
522,94797
528,94810
529,94822
525,94834
523,94846
526,94859
525,94871
521,94885
516,94898
516,94910
518,94922
514,94935
516,94947
520,94959
521,94971
519,94984
519,94996
520,95008
520,95023
519,95035
521,95047
526,95059
526,95072
524,95084
523,95096
526,95109
526,95121
523,95133
524,95148
529,95160
529,95172
522,95184
520,95197
524,95209
526,95221
526,95234
527,95246
535,95258
537,95270
536,95285
543,95297
585,95309
676,95322
681,95334
460,95346
378,95358
451,95371
480,95383
502,95395
518,95408
527,95422
530,95434
533,95447
542,95459
549,95471
552,95483
554,95496
558,95508
556,95520
547,95533
539,95547
539,95559
541,95571
538,95584
536,95596
537,95608
539,95621
536,95633
533,95645
534,95657
536,95670
534,95684
535,95696
539,95709
540,95721
537,95733
533,95746
536,95758
537,95770
534,95782
533,95795
535,95807
538,95821
533,95834
528,95846
526,95858
526,95870
522,95883
521,95895
528,95907
534,95920
530,95932
526,95946
530,95959
544,95971
612,95983
673,95995
638,96008
371,96020
390,96032
443,96045
471,96057
488,96069
495,96083
501,96096
511,96108
521,96120
525,96133
526,96145
532,96157
537,96169
536,96182
530,96194
525,96206
524,96221
524,96233
521,96245
521,96258
521,96270
516,96282
510,96294
510,96307
511,96319
511,96331
512,96346
516,96358
519,96370
518,96382
513,96395
514,96407
515,96419
515,96432
514,96444
516,96456
518,96468
517,96483
511,96495
510,96507
511,96520
507,96532
500,96544
502,96557
510,96569
511,96581
510,96593
511,96606
513,96620
514,96632
521,96645
611,96657
688,96669
649,96681
335,96694
369,96706
439,96718
471,96731
484,96745
497,96757
512,96770
519,96782
522,96794
527,96806
537,96819
541,96831
541,96843
542,96856
541,96868
535,96882
529,96894
534,96907
537,96919
535,96931
530,96944
526,96956
530,96968
533,96980
532,96993
536,97005
543,97019
543,97032
542,97044
544,97056
546,97069
546,97081
542,97093
541,97105
541,97118
541,97130
535,97144
530,97157
528,97169
526,97181
520,97193
516,97206
520,97218
521,97230
521,97243
525,97255
529,97267
529,97282
524,97294
520,97306
532,97318
619,97331
678,97343
658,97355
396,97368
395,97380
442,97392
469,97404
489,97419
504,97431
510,97443
518,97456
526,97468
534,97480
535,97492
538,97505
543,97517
545,97529
536,97544
530,97556
531,97568
534,97581
532,97593
528,97605
530,97617
528,97630
527,97642
527,97654
531,97667
534,97681
531,97693
529,97705
530,97718
530,97730
525,97742
524,97755
529,97767
533,97779
530,97792
526,97804
528,97818
530,97830
529,97843
525,97855
528,97867
533,97880
529,97892
523,97904
523,97916
521,97929
515,97943
512,97955
516,97968
522,97980
521,97992
518,98004
519,98017
523,98029
528,98041
544,98054
657,98066
681,98080
584,98093
375,98105
430,98117
466,98129
484,98142
494,98154
506,98166
516,98179
520,98191
523,98203
527,98217
536,98230
540,98242
541,98254
540,98267
539,98279
533,98291
529,98304
533,98316
536,98328
534,98342
529,98355
526,98367
527,98379
524,98392
519,98404
522,98416
526,98428
526,98441
523,98453
525,98465
528,98480
525,98492
520,98504
522,98516
524,98529
520,98541
513,98553
511,98566
513,98578
511,98590
506,98603
505,98617
509,98629
509,98641
506,98654
505,98666
507,98678
504,98691
500,98703
496,98715
495,98727
495,98742
492,98754
496,98766
499,98779
498,98791
494,98803
495,98816
499,98828
509,98840
561,98852
650,98865
656,98879
438,98891
356,98904
408,98916
435,98928
453,98940
463,98953
474,98965
487,98977
493,98990
496,99002
502,99016
508,99028
509,99041
504,99053
501,99065
499,99078
496,99090
494,99102
495,99115
497,99127
493,99141
486,99153
483,99166
484,99178
483,99190
478,99203
476,99215
479,99227
481,99239
476,99252
475,99264
479,99278
481,99291
480,99303
478,99315
476,99328
472,99340
466,99352
462,99364
466,99377
468,99389
463,99401
462,99416
465,99428
466,99440
462,99452
459,99465
460,99477
457,99489
453,99502
455,99514
460,99526
460,99540
457,99553
450,99565
451,99577
453,99590
449,99602
451,99614
456,99627
460,99639
457,99651
456,99663
463,99678
477,99690
576,99702
632,99715
600,99727
311,99739
341,99751
383,99764
412,99776
429,99788
437,99801
445,99815
455,99827
464,99840
469,99852
473,99864
483,99876
489,99889
487,99901
480,99913
477,99926
478,99940
476,99952
474,99964
477,99977
477,99989
471,100001
467,100016
465,100028
470,100042
474,100055
474,100069
474,100083
474,100096
476,100110
477,100122
474,100136
470,100151
469,100163
469,100177
471,100190
469,100204
462,100218
457,100231
454,100245
456,100257
458,100272
453,100286
452,100298
451,100313
452,100325
453,100339
450,100354
445,100366
440,100380
437,100392
431,100407
425,100421
419,100433
417,100448
415,100460
415,100474
417,100489
416,100501
417,100515
430,100528
563,100542
607,100556
468,100569
270,100583
316,100595
340,100610
359,100624
375,100636
384,100651
387,100663
388,100677
396,100691
406,100704
415,100718
418,100730
415,100745
410,100759
407,100771
400,100786
398,100798
396,100812
395,100827
391,100839
387,100853
384,100866
380,100880
380,100894
383,100907
389,100921
392,100933
391,100947
392,100962
394,100974
397,100988
398,101001
396,101015
393,101029
394,101042
396,101056
400,101068
401,101083
402,101097
403,101109
407,101124
416,101138
422,101150
424,101165
425,101177
427,101191
432,101206
433,101218
435,101232
436,101244
447,101259
455,101273
463,101285
465,101300
466,101312
472,101326
505,101341
641,101353
657,101367
437,101380
369,101394
419,101408
451,101421
477,101435
490,101447
500,101462
511,101476
520,101488
529,101502
539,101515
545,101529
546,101543
546,101556
547,101570
548,101582
548,101597
546,101611
546,101623
548,101638
550,101650
551,101664
549,101679
550,101691
555,101705
560,101718
562,101732
563,101746
561,101758
561,101773
565,101785
571,101799
572,101814
572,101826
572,101840
573,101853
575,101867
576,101881
573,101894
572,101908
575,101920
581,101935
586,101949
587,101961
586,101976
585,101988
589,102002
592,102017
593,102029
592,102043
592,102055
599,102070
602,102084
603,102096
601,102111
600,102123
609,102137
664,102152
742,102164
745,102178
482,102191
493,102205
549,102219
573,102232
586,102246
594,102258
603,102273
611,102287
619,102299
623,102313
626,102326
628,102340
628,102354
630,102367
628,102381
625,102393
622,102408
619,102422
617,102434
616,102449
613,102461
608,102475
603,102490
603,102502
604,102516
604,102529
603,102543
602,102557
603,102569
606,102584
609,102596
607,102610
602,102625
597,102637
596,102651
597,102664
597,102678
595,102692
593,102705
593,102719
596,102731
597,102746
598,102760
596,102772
591,102787
589,102799
587,102813
582,102828
580,102840
575,102854
580,102868
584,102881
586,102895
584,102907
579,102922
584,102936
621,102948
713,102963
721,102975
480,102989
454,103004
513,103016
537,103030
550,103043
558,103057
562,103071
566,103084
575,103098
578,103110
579,103124
582,103139
585,103151
583,103165
576,103178
569,103192
565,103206
562,103219
560,103233
559,103245
552,103260
545,103274
539,103286
539,103301
542,103313
542,103327
541,103342
537,103354
536,103368
538,103380
540,103395
538,103409
535,103421
535,103436
535,103448
535,103462
533,103477
531,103489
526,103503
522,103516
522,103530
523,103544
523,103557
519,103571
515,103583
515,103598
515,103612
510,103624
503,103639
500,103651
499,103665
502,103680
502,103692
498,103706
493,103718
491,103733
497,103747
522,103759
628,103774
651,103786
452,103800
351,103815
394,103827
419,103841
432,103854
442,103868
452,103882
463,103895
472,103909
477,103921
479,103936
482,103950
487,103962
488,103976
484,103989
478,104003
473,104017
469,104030
468,104044
464,104056
461,104071
455,104085
452,104097
453,104112
457,104124
457,104138
457,104153
454,104165
457,104179
458,104192
455,104206
451,104220
445,104232
444,104247
441,104259
435,104273
430,104288
428,104300
428,104314
430,104327
431,104341
429,104355
427,104368
421,104382
423,104394
426,104409
431,104423
431,104435
429,104450
431,104462
436,104476
445,104491
528,104503
614,104517
588,104529
325,104544
350,104558
380,104570
398,104585
410,104599
424,104611
439,104626
450,104638
457,104652
464,104667
471,104679
478,104693
484,104706
483,104720
475,104734
470,104747
471,104761
473,104773
475,104787
471,104802
468,104814
468,104828
473,104841
479,104855
478,104869
477,104882
479,104896
480,104908
481,104923
482,104937
483,104949
484,104964
485,104976
488,104990
488,105005
487,105017
485,105031
484,105043
488,105058
494,105072
496,105084
496,105099
494,105111
498,105125
502,105140
507,105152
514,105166
518,105179
519,105193
521,105207
533,105220
577,105234
663,105246
662,105261
442,105275
423,105287
463,105302
486,105314
501,105328
515,105342
528,105355
537,105369
547,105381
555,105396
565,105410
576,105422
581,105437
580,105449
575,105463
571,105478
576,105490
579,105504
580,105517
574,105531
569,105545
568,105558
568,105572
566,105584
563,105598
559,105613
557,105625
553,105639
546,105652
539,105666
530,105680
521,105693
518,105707
515,105719
511,105734
504,105748
497,105760
497,105775
500,105787
501,105801
500,105816
493,105828
491,105842
491,105854
495,105869
496,105883
495,105895
495,105910
500,105922
511,105936
541,105951
629,105963
651,105977
477,105990
381,106004
428,106018
453,106031
472,106045
483,106057
492,106072
499,106086
503,106098
503,106113
502,106125
505,106139
509,106153
507,106166
498,106180
491,106192
490,106207
492,106221
491,106233
484,106248
477,106260
473,106274
471,106289
473,106301
472,106315
469,106330
465,106342
465,106356
466,106369
466,106383
460,106397
452,106409
445,106424
441,106436
436,106450
432,106465
428,106477
424,106491
422,106504
419,106518
419,106532
414,106545
413,106559
414,106571
417,106586
419,106600
418,106612
418,106627
445,106639
551,106653
577,106668
379,106680
300,106694
335,106706
355,106721
372,106735
384,106747
392,106762
397,106774
405,106788
416,106803
428,106815
436,106829
439,106842
440,106856
440,106870
444,106883
448,106897
450,106909
450,106924
450,106938
448,106950
447,106964
447,106977
447,106991
449,107005
456,107018
466,107032
466,107044
464,107059
464,107073
465,107085
470,107100
471,107112
472,107126
473,107141
474,107153
475,107167
472,107180
469,107194
468,107208
468,107220
475,107235
483,107247
488,107261
489,107276
491,107288
505,107302
607,107315
659,107329
600,107343
361,107356
408,107370
445,107382
470,107397
484,107411
493,107423
499,107438
508,107450
517,107464
523,107479
526,107491
530,107505
531,107517
532,107532
528,107546
527,107558
529,107573
528,107585
529,107599
531,107614
531,107626
526,107640
525,107653
528,107667
534,107681
538,107694
538,107708
536,107720
536,107735
539,107749
540,107761
540,107776
539,107788
537,107802
538,107816
541,107829
543,107843
540,107855
534,107870
534,107884
539,107896
547,107911
550,107923
551,107937
551,107952
554,107964
564,107978
608,107991
714,108005
704,108019
448,108032
453,108046
501,108060
522,108072
536,108087
547,108099
560,108113
568,108128
573,108140
575,108154
581,108167
588,108181
591,108195
590,108208
582,108222
580,108234
582,108249
585,108263
586,108275
584,108290
580,108302
577,108316
579,108331
583,108343
583,108357
580,108369
577,108384
580,108398
584,108410
582,108425
579,108437
574,108451
570,108466
569,108478
567,108492
561,108505
557,108519
553,108533
554,108546
555,108560
558,108572
564,108587
566,108601
567,108613
569,108627
573,108640
583,108654
669,108668
718,108681
625,108695
431,108707
481,108722
506,108736
524,108748
535,108763
546,108775
553,108789
558,108804
562,108816
567,108830
571,108843
574,108857
570,108871
561,108883
555,108898
556,108910
559,108924
558,108939
553,108951
546,108965
543,108978
542,108992
542,109006
543,109019
542,109033
544,109045
546,109060
546,109074
542,109086
539,109101
536,109113
538,109127
540,109142
540,109154
536,109168
533,109180
530,109195
532,109209
534,109221
532,109236
531,109248
530,109262
531,109277
528,109289
528,109303
525,109316
528,109330
532,109344
536,109357
537,109371
535,109383
536,109398
555,109412
655,109424
676,109438
563,109451
426,109465
466,109479
489,109492
503,109506
509,109518
510,109533
513,109547
521,109559
529,109574
534,109586
535,109600
531,109615
526,109627
521,109641
516,109654
515,109668
512,109682
509,109694
508,109709
505,109721
500,109735
497,109750
495,109762
495,109776
500,109791
501,109803
499,109817
494,109830
491,109844
490,109858
492,109871
492,109885
490,109897
492,109912
493,109926
497,109938
495,109953
489,109965
485,109979
482,109993
477,110006
475,110020
475,110032
474,110047
475,110061
479,110073
483,110088
486,110100
494,110114
535,110129
632,110141
630,110155
388,110168
393,110182
429,110196
452,110209
470,110223
483,110235
490,110249
495,110264
502,110276
511,110290
519,110303
523,110317
521,110331
516,110344
510,110358
508,110370
512,110385
514,110399
510,110411
511,110426
515,110438
519,110452
520,110467
518,110479
520,110493
524,110505
528,110520
529,110534
528,110546
527,110561
527,110573
530,110587
529,110602
528,110614
523,110628
521,110641
525,110655
530,110669
531,110682
528,110696
524,110708
521,110723
522,110737
525,110749
529,110764
531,110776
532,110790
537,110804
540,110817
547,110831
599,110843
685,110858
674,110872
433,110884
447,110899
481,110911
499,110925
515,110940
528,110952
537,110966
541,110979
546,110993
549,111007
554,111020
557,111034
558,111046
549,111060
540,111075
538,111087
541,111101
541,111114
538,111128
533,111142
530,111155
530,111169
531,111181
533,111196
532,111210
533,111222
536,111237
537,111249
536,111263
531,111278
529,111290
529,111304
530,111316
530,111331
525,111345
520,111357
519,111372
518,111384
514,111398
513,111413
511,111425
515,111439
518,111452
521,111466
521,111480
518,111493
521,111507
550,111521
680,111534
681,111548
452,111560
387,111575
442,111589
474,111601
494,111616
507,111628
516,111642
522,111656
529,111669
538,111683
543,111695
544,111710
543,111724
543,111736
540,111751
537,111763
535,111777
531,111792
526,111804
525,111818
524,111831
521,111845
519,111859
517,111872
514,111886
516,111898
516,111912
515,111927
513,111939
516,111953
521,111966
522,111980
520,111994
515,112007
510,112021
509,112033
512,112048
511,112062
506,112074
502,112089
500,112101
501,112115
506,112130
505,112142
500,112156
499,112168
500,112183
506,112197
527,112209
635,112224
647,112236
423,112250
353,112265
401,112277
427,112291
444,112304
453,112318
462,112332
465,112345
466,112359
467,112371
471,112386
478,112400
480,112412
474,112427
458,112439
448,112453
444,112467
442,112480
437,112494
430,112506
420,112521
413,112535
407,112547
402,112562
395,112574
388,112588
382,112603
382,112615
384,112629
386,112642
383,112656
380,112670
378,112683
376,112697
371,112709
364,112723
357,112738
351,112750
351,112764
347,112777
345,112791
343,112805
343,112818
350,112832
357,112844
362,112859
362,112873
363,112885
383,112900
504,112912
523,112926
335,112941
230,112953
274,112967
300,112979
316,112994
325,113008
331,113020
334,113035
344,113047
356,113061
368,113076
373,113088
372,113102
370,113115
366,113129
363,113143
361,113156
359,113170
357,113182
358,113197
355,113211
354,113223
349,113238
347,113252
349,113264
357,113278
361,113291
359,113305
358,113319
359,113332
361,113346
365,113358
368,113373
370,113387
372,113399
376,113414
379,113426
381,113440
379,113455
373,113467
371,113481
376,113494
381,113508
387,113522
389,113534
392,113549
398,113561
408,113575
427,113590
528,113602
607,113616
573,113629
333,113643
360,113657
387,113670
404,113684
423,113696
440,113711
454,113725
463,113737
468,113752
477,113764
486,113778
495,113793
501,113805
500,113819
498,113831
499,113846
505,113860
511,113872
512,113887
510,113899
509,113913
515,113928
523,113940
527,113954
527,113967
527,113981
529,113995
532,114008
535,114022
537,114034
536,114049
539,114063
544,114075
547,114089
545,114102
544,114116
542,114130
547,114143
552,114157
558,114169
557,114184
559,114198
564,114210
570,114225
574,114237
576,114251
576,114266
579,114278
588,114292
609,114305
725,114319
758,114333
626,114345
471,114360
538,114372
563,114386
576,114401
585,114413
594,114427
605,114440
613,114454
616,114468
618,114481
624,114495
629,114507
629,114522
626,114536
621,114548
620,114563
621,114575
626,114589
627,114604
624,114616
620,114630
619,114642
622,114657
625,114671
625,114683
624,114698
624,114710
625,114724
625,114739
624,114751
619,114765
615,114778
613,114792
616,114806
618,114819
616,114833
613,114845
611,114860
610,114874
605,114886
602,114900
600,114913
602,114927
606,114941
609,114954
611,114968
609,114982
608,114995
619,115009
738,115021
775,115036
677,115050
460,115062
521,115077
556,115089
575,115103
585,115118
590,115130
596,115144
600,115156
605,115171
608,115185
609,115197
608,115212
601,115224
599,115238
596,115253
593,115265
592,115279
590,115292
587,115306
586,115320
583,115333
580,115347
580,115359
582,115374
583,115388
584,115400
581,115415
576,115427
569,115441
566,115456
567,115468
564,115482
558,115494
555,115509
555,115523
557,115535
553,115550
550,115562
547,115576
547,115591
544,115603
542,115617
538,115630
536,115644
537,115658
539,115671
544,115685
545,115697
543,115712
545,115726
596,115738
697,115752
670,115765
396,115779
423,115793
473,115806
496,115820
511,115832
521,115847
530,115861
533,115873
540,115888
550,115900
558,115914
562,115929
560,115941
558,115955
554,115968
550,115982
550,115996
549,116008
550,116023
548,116035
548,116049
547,116064
542,116076
538,116090
539,116103
540,116117
540,116131
537,116144
533,116158
535,116170
537,116185
535,116199
532,116211
527,116226
524,116238
524,116252
524,116267
522,116279
517,116293
508,116305
508,116320
510,116334
512,116346
512,116361
507,116373
506,116387
507,116402
516,116414
531,116428
623,116441
646,116455
472,116469
363,116482
410,116496
439,116508
460,116523
475,116537
490,116549
504,116563
511,116576
515,116590
519,116604
526,116617
531,116631
528,116643
519,116658
512,116672
513,116684
515,116699
516,116713
514,116725
510,116740
509,116752
512,116766
515,116781
513,116793
510,116807
505,116819
504,116834
505,116848
504,116860
503,116875
502,116887
504,116901
506,116916
505,116928
504,116942
500,116955
495,116969
495,116983
497,116996
496,117010
495,117022
491,117037
495,117051
500,117063
500,117078
500,117090
498,117104
497,117118
500,117131
506,117145
526,117157
634,117172
656,117186
513,117198
375,117213
427,117225
455,117239
471,117254
485,117266
495,117280
503,117293
510,117307
516,117321
523,117334
530,117348
533,117360
529,117374
520,117389
512,117401
513,117415
520,117428
522,117442
518,117456
515,117469
513,117483
515,117495
515,117510
514,117524
514,117536
516,117551
518,117563
520,117577
520,117592
519,117604
516,117618
517,117630
520,117645
519,117659
516,117671
513,117686
510,117698
513,117712
509,117727
503,117739
502,117753
503,117766
511,117780
515,117794
517,117807
514,117821
512,117833
522,117848
577,117862
676,117874
666,117889
381,117901
391,117915
446,117929
471,117942
487,117956
499,117968
507,117983
512,117997
519,118009
526,118024
529,118036
531,118050
532,118065
532,118077
529,118091
527,118104
527,118118
528,118132
531,118145
533,118159
532,118171
529,118185
529,118200
531,118212
533,118226
534,118239
533,118253
531,118267
532,118280
535,118294
537,118306
534,118321
530,118335
528,118347
530,118362
531,118374
531,118388
530,118403
527,118415
524,118429
527,118444
527,118456
530,118470
529,118482
530,118497
532,118511
536,118523
542,118538
581,118550
678,118564
681,118579
428,118591
421,118605
468,118618
488,118632
503,118646
515,118659
524,118673
529,118685
532,118700
536,118714
541,118726
547,118740
547,118753
541,118767
531,118781
526,118794
527,118808
528,118820
527,118835
522,118849
518,118861
516,118876
514,118888
511,118902
507,118917
503,118929
503,118943
504,118956
502,118970
497,118984
492,118996
487,119011
484,119023
480,119037
475,119052
469,119064
466,119078
463,119091
454,119105
450,119119
442,119132
441,119146
442,119158
444,119173
444,119187
443,119199
444,119214
476,119226
599,119240
593,119255
314,119267
299,119281
334,119293
357,119308
378,119322
390,119334
398,119349
405,119361
413,119375
423,119390
428,119402
433,119416
431,119429
427,119443
422,119457
419,119470
418,119484
415,119496
414,119511
415,119525
419,119537
421,119552
421,119564
421,119578
422,119592
423,119605
426,119619
428,119631
425,119646
426,119660
428,119672
428,119687
429,119699
423,119713
422,119728
425,119740
427,119754
427,119767
422,119781
419,119795
419,119808
423,119822
429,119834
431,119848
433,119863
436,119875
445,119889
472,119902
620,119916
632,119930
433,119943
321,119957
378,119969
405,119984
422,119998
433,120010
447,120025
458,120037
469,120051
477,120066
483,120078
488,120092
490,120104
491,120119
488,120133
483,120145
484,120160
491,120174
497,120186
500,120201
499,120213
495,120227
493,120242
495,120254
499,120268
502,120281
500,120295
499,120309
499,120322
502,120336
502,120348
499,120363
498,120377
499,120389
500,120403
501,120416
502,120430
498,120444
496,120457
491,120471
496,120483
498,120498
500,120512
503,120524
504,120539
508,120551
509,120565
514,120580
532,120592
642,120606
663,120619
507,120633
381,120647
430,120659
460,120674
481,120686
498,120700
510,120715
518,120727
525,120741
533,120754
543,120768
548,120782
548,120795
543,120809
540,120821
540,120836
544,120850
549,120862
549,120877
548,120889
549,120903
551,120918
553,120930
553,120944
553,120956
557,120971
559,120985
563,120997
561,121012
557,121024
556,121038
557,121053
560,121065
558,121079
554,121092
552,121106
551,121120
551,121133
549,121147
548,121159
546,121174
547,121188
552,121200
557,121214
556,121227
554,121241
557,121255
573,121268
684,121282
713,121294
599,121309
423,121323
472,121335
503,121350
523,121362
535,121376
541,121391
546,121403
552,121417
560,121430
565,121444
567,121458
568,121470
568,121485
565,121497
561,121511
556,121526
554,121538
553,121552
552,121565
553,121579
553,121593
551,121606
549,121620
550,121632
553,121647
554,121661
550,121673
547,121688
548,121700
550,121714
553,121729
551,121741
546,121755
544,121767
546,121782
549,121796
552,121808
549,121823
544,121835
545,121849
547,121864
552,121876
553,121890
549,121905
551,121917
555,121931
562,121944
591,121958
697,121972
711,121985
480,121999
421,122011
475,122025
501,122040
515,122052
524,122066
531,122079
539,122093
543,122107
547,122120
553,122134
562,122146
563,122161
560,122175
552,122187
546,122202
546,122214
551,122228
552,122243
547,122255
542,122269
540,122281
540,122296
541,122310
540,122322
536,122337
537,122349
540,122363
541,122378
540,122390
537,122404
532,122417
531,122431
531,122445
530,122458
528,122472
525,122484
524,122499
521,122513
521,122525
520,122540
518,122552
522,122566
526,122580
528,122593
528,122607
527,122619
532,122634
597,122648
677,122660
641,122675
378,122687
412,122701
447,122716
470,122728
484,122742
493,122755
498,122769
502,122783
509,122796
518,122810
521,122822
523,122836
522,122851
519,122863
517,122877
517,122890
518,122904
518,122918
518,122931
519,122945
520,122957
519,122972
516,122986
515,122998
516,123013
518,123025
518,123039
514,123054
508,123066
504,123080
502,123092
502,123107
499,123121
494,123133
490,123148
489,123160
491,123174
489,123189
485,123201
481,123215
483,123228
484,123242
490,123256
491,123269
490,123283
489,123295
492,123310
499,123324
526,123336
621,123351
632,123363
420,123377
364,123392
402,123404
425,123418
441,123430
456,123445
470,123459
482,123471
485,123486
490,123498
494,123512
498,123527
502,123539
502,123553
494,123566
489,123580
489,123594
493,123607
494,123621
492,123635
490,123648
491,123662
494,123674
495,123688
496,123703
493,123715
493,123729
494,123742
497,123756
499,123770
498,123783
497,123797
499,123809
501,123824
501,123838
498,123850
496,123865
495,123877
494,123891
498,123906
499,123918
504,123932
507,123944
510,123959
514,123973
517,123985
525,124000
561,124012
673,124026
660,124041
418,124053
409,124067
446,124080
473,124094
492,124108
505,124121
515,124135
519,124147
523,124162
527,124176
536,124188
543,124203
541,124215
535,124229
528,124243
525,124256
527,124270
527,124282
525,124297
523,124311
522,124323
523,124338
523,124350
521,124364
520,124379
519,124391
521,124405
523,124418
524,124432
521,124446
517,124459
516,124473
514,124485
511,124499
506,124514
504,124526
500,124540
495,124553
492,124567
488,124581
486,124594
489,124608
492,124620
495,124635
495,124649
498,124661
511,124676
615,124688
645,124702
543,124717
358,124729
390,124743
417,124755
439,124770
453,124784
464,124796
469,124811
476,124823
481,124837
487,124852
489,124864
489,124878
484,124891
478,124905
476,124919
476,124932
476,124946
476,124958
479,124973
480,124987
480,124999
479,125014
476,125026
476,125040
477,125054
480,125067
482,125081
478,125093
476,125108
475,125122
476,125134
476,125149
472,125161
470,125175
470,125190
471,125202
471,125216
468,125229
459,125243
455,125257
452,125270
454,125284
458,125296
458,125310
460,125325
462,125337
468,125351
480,125366
571,125378
609,125392
538,125405
361,125419
396,125433
418,125446
435,125460
450,125472
461,125487
474,125501
482,125513
487,125528
492,125540
498,125554
503,125569
504,125581
499,125595
494,125607
493,125622
497,125636
500,125648
502,125663
498,125675
494,125689
492,125704
494,125716
498,125730
498,125743
497,125757
497,125771
498,125784
499,125798
497,125810
495,125825
494,125839
494,125851
496,125865
497,125878
495,125892
494,125906
494,125919
493,125933
495,125945
493,125960
493,125974
496,125986
502,126001
508,126013
506,126027
507,126042
516,126054
604,126068
657,126081
600,126095
378,126109
415,126121
452,126136
482,126148
500,126162
514,126177
524,126189
531,126203
541,126216
552,126230
556,126244
558,126257
557,126271
556,126283
555,126298
554,126312
555,126324
553,126339
548,126351
549,126365
550,126380
548,126392
546,126406
544,126418
545,126433
548,126447
547,126459
544,126474
544,126486
542,126500
543,126515
542,126527
537,126541
532,126554
529,126568
530,126582
531,126595
533,126609
532,126621
528,126636
528,126650
528,126662
524,126676
521,126689
518,126703
519,126717
525,126730
527,126744
527,126756
524,126771
521,126785
529,126797
573,126812
656,126824
657,126838
418,126853
414,126865
452,126879
476,126892
489,126906
498,126920
507,126932
515,126947
523,126959
528,126973
529,126988
530,127000
531,127014
530,127027
527,127041
523,127055
522,127068
525,127082
527,127096
527,127109
523,127123
518,127135
517,127150
519,127164
521,127176
522,127191
519,127203
517,127217
515,127232
519,127244
520,127258
519,127270
516,127285
515,127299
514,127311
512,127326
509,127338
506,127352
506,127367
508,127379
510,127393
510,127406
509,127420
505,127434
501,127447
501,127461
504,127473
502,127488
501,127502
502,127514
503,127528
505,127541
503,127555
507,127569
568,127582
647,127596
622,127608
383,127623
405,127637
429,127649
446,127664
461,127676
475,127690
484,127705
489,127717
494,127731
504,127744
512,127758
514,127772
513,127784
510,127799
508,127811
510,127825
512,127840
511,127852
508,127866
506,127879
506,127893
508,127907
509,127920
510,127934
511,127946
513,127961
516,127975
517,127987
516,128002
514,128014
514,128028
515,128043
516,128055
515,128069
514,128081
514,128096
516,128110
516,128122
514,128137
511,128149
510,128163
511,128178
509,128190
510,128204
508,128217
508,128231
513,128245
516,128258
520,128272
520,128284
521,128299
535,128313
657,128325
684,128339
587,128352
401,128366
440,128380
470,128393
493,128407
506,128419
513,128434
518,128448
525,128460
532,128475
539,128487
542,128501
542,128516
540,128528
535,128542
532,128555
532,128569
531,128583
530,128595
530,128610
532,128622
530,128636
526,128651
524,128663
525,128677
527,128690
531,128704
531,128718
531,128731
529,128745
529,128757
531,128772
530,128786
527,128798
523,128813
520,128827
521,128839
519,128854
517,128866
514,128880
512,128894
513,128907
512,128921
509,128933
505,128948
502,128962
506,128974
510,128989
514,129001
514,129015
512,129030
518,129042
586,129056
654,129069
626,129083
386,129097
413,129110
448,129124
469,129136
483,129150
492,129165
499,129177
505,129191
513,129204
520,129218
524,129232
524,129245
523,129259
523,129271
520,129286
518,129300
517,129312
517,129327
517,129339
517,129353
517,129368
515,129380
513,129394
512,129406
515,129421
517,129435
516,129447
513,129462
511,129474
513,129488
515,129503
512,129515
508,129529
504,129542
501,129556
500,129570
498,129583
495,129597
490,129609
489,129624
492,129638
495,129650
495,129665
493,129677
489,129691
492,129705
495,129718
499,129732
501,129744
502,129759
501,129773
506,129785
510,129800
529,129812
616,129826
637,129841
487,129853
384,129867
426,129880
449,129894
467,129908
481,129921
494,129935
502,129947
509,129961
514,129976
519,129988
526,130002
529,130015
527,130029
522,130043
517,130056
518,130070
523,130082
525,130097
522,130111
520,130123
520,130138
524,130150
527,130164
526,130179
524,130191
526,130205
528,130217
531,130232
531,130246
528,130258
525,130273
526,130285
530,130299
530,130314
527,130326
524,130340
526,130353
528,130367
529,130381
526,130394
520,130408
519,130420
521,130435
527,130449
529,130461
527,130476
524,130488
524,130502
532,130516
576,130529
661,130543
653,130557
408,130570
411,130584
456,130596
478,130611
494,130625
505,130637
514,130652
523,130664
529,130678
530,130693
529,130705
532,130719
534,130732
530,130746
522,130760
513,130772
512,130787
512,130799
511,130813
507,130828
502,130840
497,130854
489,130867
486,130881
479,130895
472,130908
463,130922
462,130934
467,130949
475,130963
482,130975
487,130990
491,131002
494,131016
495,131031
493,131043
492,131057
490,131069
491,131084
490,131098
487,131110
483,131125
485,131137
488,131151
499,131166
504,131178
509,131192
513,131205
516,131219
524,131233
541,131246
646,131260
669,131272
538,131287
355,131301
409,131313
439,131328
458,131340
469,131354
479,131368
490,131381
503,131395
512,131407
515,131422
519,131436
520,131448
521,131463
515,131475
511,131489
508,131504
510,131516
512,131530
513,131543
509,131557
504,131571
501,131584
502,131598
508,131610
510,131624
510,131639
510,131651
511,131665
513,131678
512,131692
511,131706
509,131719
508,131733
508,131745
508,131760
507,131774
506,131786
504,131801
507,131813
509,131827
510,131842
511,131854
509,131868
514,131880
517,131895
518,131909
516,131921
516,131936
525,131948
625,131962
687,131977
626,131989
365,132003
414,132016
462,132030
488,132044
501,132057
507,132071
511,132083
515,132098
524,132112
530,132124
535,132139
537,132151
536,132165
533,132179
530,132192
527,132206
527,132218
524,132233
523,132247
522,132259
522,132274
517,132288
513,132300
513,132315
515,132327
515,132341
511,132356
506,132368
503,132382
502,132395
499,132409
494,132423
488,132435
483,132450
479,132462
478,132476
479,132491
474,132503
467,132517
465,132530
466,132544
469,132558
468,132571
465,132585
466,132597
468,132612
480,132626
582,132638
624,132653
534,132665
300,132679
348,132694
379,132706
399,132720
413,132732
424,132747
434,132761
443,132773
447,132788
450,132800
454,132814
458,132829
459,132841
454,132855
447,132868
442,132882
440,132896
443,132909
445,132923
444,132935
438,132950
436,132964
438,132976
441,132990
440,133003
438,133017
438,133031
441,133044
443,133058
444,133070
443,133085
439,133099
435,133111
435,133126
435,133138
434,133152
428,133167
423,133179
423,133193
422,133206
424,133220
423,133234
423,133246
423,133261
425,133273
435,133287
516,133302
599,133314
546,133328
284,133341
329,133355
361,133369
383,133382
401,133396
414,133408
428,133423
437,133437
444,133449
450,133464
456,133476
464,133490
464,133505
460,133517
453,133531
449,133543
451,133558
455,133572
455,133584
452,133599
448,133611
447,133625
447,133640
447,133652
447,133666
445,133679
447,133693
450,133707
453,133720
450,133734
444,133746
438,133761
440,133775
441,133787
443,133801
438,133814
434,133828
434,133842
435,133855
436,133869
434,133881
436,133896
436,133910
445,133922
466,133937
582,133949
612,133963
486,133978
311,133990
362,134004
393,134019
417,134031
431,134045
443,134057
456,134072
466,134086
472,134098
474,134113
480,134125
486,134139
487,134154
483,134166
475,134180
471,134193
469,134207
472,134221
475,134234
475,134248
472,134260
472,134275
474,134289
478,134301
477,134316
476,134328
475,134342
477,134356
480,134369
482,134383
481,134395
481,134410
478,134424
481,134436
484,134451
481,134463
478,134477
476,134492
483,134504
490,134518
493,134531
495,134545
498,134559
513,134572
582,134586
662,134598
640,134612
364,134627
398,134639
454,134653
485,134666
501,134680
510,134694
517,134707
528,134721
540,134733
549,134748
554,134762
554,134774
549,134789
543,134801
539,134815
536,134830
533,134842
534,134856
541,134868
541,134883
535,134897
532,134909
533,134924
535,134936
539,134950
542,134965
539,134977
539,134991
541,135004
543,135018
544,135032
542,135045
540,135059
536,135071
535,135086
535,135100
534,135112
529,135127
525,135139
525,135153
527,135168
526,135180
528,135194
537,135206
561,135221
670,135235
696,135247
586,135262
366,135274
417,135288
463,135303
492,135315
511,135329
521,135342
529,135356
538,135370
546,135383
552,135397
552,135409
545,135424
535,135438
524,135450
518,135464
516,135477
514,135491
513,135505
516,135518
522,135532
525,135544
526,135559
524,135573
527,135585
535,135600
540,135612
544,135626
546,135641
548,135653
550,135667
554,135680
556,135694
554,135708
548,135720
546,135735
546,135749
550,135761
548,135776
549,135788
550,135802
550,135817
547,135829
543,135843
544,135856
576,135870
712,135884
725,135897
485,135911
406,135923
462,135938
491,135952
512,135964
526,135979
538,135991
543,136005
549,136019
559,136032
566,136046
568,136058
566,136073
560,136087
558,136099
556,136114
558,136126
556,136140
551,136155
547,136167
544,136181
544,136194
543,136208
543,136222
541,136235
540,136249
540,136261
536,136275
530,136290
527,136302
529,136316
532,136329
529,136343
525,136357
523,136370
520,136384
519,136396
519,136411
518,136425
514,136437
515,136452
519,136464
523,136478
530,136493
529,136505
527,136519
528,136531
530,136546
535,136560
597,136572
676,136587
654,136599
379,136613
411,136628
449,136640
474,136654
491,136667
507,136681
518,136695
524,136708
526,136722
529,136734
534,136749
540,136763
544,136775
540,136790
536,136802
535,136816
538,136830
543,136843
542,136857
538,136869
535,136884
535,136898
539,136910
539,136925
539,136937
537,136951
536,136966
538,136978
542,136992
540,137005
535,137019
528,137033
525,137046
524,137060
525,137072
523,137086
518,137101
517,137113
519,137127
519,137140
509,137154
503,137168
500,137181
500,137195
503,137207
503,137222
504,137236
506,137248
510,137263
527,137275
645,137289
681,137304
566,137316
380,137330
428,137342
455,137357
472,137371
480,137383
491,137398
501,137410
507,137424
512,137439
513,137451
514,137465
515,137480
516,137492
513,137506
507,137519
501,137533
502,137547
505,137560
507,137574
507,137586
506,137601
508,137615
513,137627
518,137641
520,137654
519,137668
517,137682
517,137695
518,137709
522,137721
523,137736
520,137750
517,137762
518,137777
519,137789
517,137803
513,137818
512,137830
513,137844
514,137857
513,137871
508,137885
505,137897
502,137912
506,137924
510,137938
509,137953
505,137965
507,137979
513,137992
527,138006
634,138020
668,138033
551,138047
371,138059
417,138074
444,138088
461,138100
472,138115
484,138127
493,138141
502,138156
507,138168
510,138182
512,138194
516,138209
518,138223
515,138235
509,138250
505,138262
507,138276
511,138291
513,138303
511,138317
508,138330
505,138344
504,138358
507,138371
508,138385
508,138397
507,138412
507,138426
509,138438
510,138452
502,138465
495,138479
489,138493
487,138506
485,138520
482,138532
478,138547
473,138561
472,138573
476,138588
474,138600
474,138614
472,138629
474,138641
480,138655
485,138668
485,138682
485,138696
493,138708
513,138723
629,138735
650,138749
531,138764
381,138776
418,138790
448,138803
468,138817
480,138831
487,138844
493,138858
503,138870
512,138885
519,138899
522,138911
524,138926
526,138938
526,138952
522,138967
520,138979
516,138993
518,139005
517,139020
517,139034
515,139046
513,139061
512,139073
515,139087
518,139102
519,139114
515,139128
514,139141
516,139155
519,139169
519,139182
517,139196
514,139210
514,139223
514,139237
516,139249
516,139264
515,139278
516,139290
518,139304
522,139317
521,139331
519,139345
517,139358
516,139372
519,139384
519,139399
522,139413
521,139425
521,139440
522,139452
525,139466
533,139481
563,139493
657,139507
666,139520
452,139534
418,139548
451,139560
471,139575
486,139587
499,139601
508,139616
513,139628
518,139642
524,139655
530,139669
537,139683
538,139696
536,139710
530,139722
530,139737
532,139751
534,139763
532,139778
527,139790
525,139804
527,139819
528,139831
528,139845
526,139857
524,139872
525,139886
528,139898
529,139913
528,139925
526,139939
526,139954
527,139966
527,139980
525,139993
522,140007
521,140021
524,140034
525,140048
523,140060
519,140075
515,140089
517,140101
519,140115
524,140128
524,140142
524,140156
525,140169
527,140183
534,140195
565,140210
653,140224
670,140236
453,140251
417,140263
455,140277
476,140292
490,140304
503,140318
512,140331
520,140345
526,140359
529,140371
534,140386
538,140398
543,140412
540,140427
536,140439
535,140453
537,140466
539,140480
537,140494
534,140507
530,140521
528,140533
530,140548
533,140562
533,140574
532,140589
533,140601
535,140615
535,140630
534,140642
532,140656
531,140668
534,140683
535,140697
535,140709
533,140724
530,140736
529,140750
532,140765
534,140777
534,140791
530,140804
527,140818
528,140832
528,140845
529,140859
527,140871
527,140886
528,140900
532,140912
540,140926
620,140941
677,140953
641,140967
406,140980
439,140994
465,141008
482,141021
493,141035
504,141047
513,141062
519,141076
524,141088
528,141103
535,141115
541,141129
544,141144
540,141156
533,141170
530,141182
530,141197
533,141211
532,141223
527,141238
517,141250
515,141264
515,141279
513,141291
509,141305
506,141318
504,141332
505,141346
504,141359
501,141373
495,141385
489,141400
485,141414
484,141426
483,141441
479,141453
474,141467
471,141481
468,141494
463,141508
460,141520
456,141535
458,141549
460,141561
459,141576
457,141588
452,141602
445,141617
503,141629
581,141643
555,141656
285,141670
315,141684
348,141697
370,141711
384,141723
391,141737
395,141752
402,141764
412,141778
421,141791
428,141805
428,141819
424,141832
420,141846
418,141858
416,141873
411,141887
406,141899
400,141914
398,141926
393,141940
390,141955
385,141967
384,141981
387,141993
390,142008
390,142022
386,142034
383,142049
381,142061
381,142075
383,142090
381,142102
377,142116
374,142129
373,142143
374,142157
373,142170
366,142184
362,142196
362,142211
364,142225
366,142237
364,142252
362,142264
362,142278
367,142292
382,142305
502,142319
546,142331
491,142346
275,142360
308,142372
328,142387
344,142399
356,142413
370,142428
383,142440
393,142454
400,142467
405,142481
413,142495
422,142508
428,142522
427,142534
422,142548
421,142563
425,142575
426,142589
424,142602
421,142616
418,142630
419,142643
426,142657
434,142671
440,142684
443,142698
447,142710
453,142725
458,142739
461,142751
462,142766
463,142778
464,142792
466,142807
469,142819
469,142833
468,142845
470,142860
471,142874
474,142886
475,142901
480,142913
486,142927
492,142942
498,142954
501,142968
505,142981
530,142995
624,143009
628,143022
440,143036
400,143048
434,143063
461,143077
481,143089
495,143104
504,143116
511,143130
517,143144
527,143157
537,143171
545,143183
546,143198
544,143212
542,143224
544,143239
544,143251
544,143265
542,143280
541,143292
541,143306
543,143319
544,143333
544,143347
544,143360
546,143374
550,143386
552,143400
553,143415
552,143427
554,143441
555,143454
555,143468
553,143482
547,143495
546,143509
547,143521
547,143536
544,143550
540,143562
535,143577
536,143589
538,143603
538,143618
538,143630
537,143644
545,143656
605,143671
689,143685
675,143697
406,143712
432,143724
480,143738
507,143753
522,143765
530,143779
535,143792
542,143806
549,143820
556,143833
558,143847
559,143859
558,143874
558,143888
557,143900
558,143915
557,143927
554,143941
555,143955
555,143968
553,143982
552,143994
548,144009
548,144023
550,144035
554,144050
553,144062
550,144076
550,144091
551,144103
552,144117
550,144130
547,144144
545,144158
544,144171
543,144185
541,144197
535,144211
531,144226
529,144238
533,144252
536,144265
537,144279
534,144293
535,144306
545,144320
651,144332
689,144347
607,144361
383,144373
435,144388
471,144402
489,144414
502,144429
509,144441
515,144455
522,144470
532,144482
539,144496
541,144508
542,144523
543,144537
544,144549
541,144564
538,144576
539,144590
538,144605
537,144617
537,144631
536,144644
536,144658
534,144672
537,144685
542,144699
543,144711
540,144726
538,144740
537,144752
536,144766
536,144779
534,144793
533,144807
532,144820
533,144834
533,144846
531,144861
522,144875
516,144887
516,144902
522,144914
527,144928
528,144943
527,144955
528,144969
535,144982
559,144996
656,145010
666,145022
476,145037
399,145049
454,145063
476,145078
489,145090
500,145104
509,145117
520,145131
529,145145
534,145158
538,145172
542,145184
548,145199
547,145213
542,145225
537,145240
534,145252
536,145266
542,145281
543,145293
540,145307
536,145319
535,145334
536,145348
539,145360
539,145375
537,145387
535,145401
534,145416
533,145428
532,145442
527,145455
521,145469
520,145483
521,145496
520,145510
515,145522
510,145537
509,145551
509,145563
511,145577
511,145590
509,145604
506,145618
506,145631
517,145645
594,145657
639,145672
583,145686
347,145698
388,145713
420,145725
439,145739
447,145754
455,145766
464,145780
471,145793
477,145807
479,145821
479,145833
479,145848
480,145860
475,145874
464,145889
457,145901
458,145915
460,145928
459,145942
454,145956
446,145969
440,145983
436,145995
436,146010
435,146024
432,146036
427,146051
426,146063
425,146077
423,146092
414,146104
406,146118
401,146132
399,146145
395,146159
391,146171
381,146186
372,146200
367,146212
367,146227
369,146239
369,146253
369,146268
371,146280
378,146294
397,146307
513,146321
531,146335
378,146348
237,146362
288,146374
309,146388
320,146403
327,146415
336,146429
346,146442
354,146456
362,146470
369,146483
378,146497
384,146509
386,146524
382,146538
375,146550
375,146565
381,146577
389,146591
393,146606
393,146618
391,146632
393,146644
398,146659
400,146673
400,146685
400,146700
401,146712
405,146726
410,146741
413,146753
414,146767
414,146780
417,146794
424,146808
427,146821
428,146835
427,146847
428,146862
431,146876
435,146888
436,146903
433,146915
435,146929
440,146944
449,146956
455,146970
457,146982
456,146997
458,147011
470,147023
525,147038
596,147050
594,147064
358,147079
364,147091
413,147105
435,147118
450,147132
463,147146
475,147159
484,147173
493,147185
496,147200
499,147214
501,147226
505,147240
506,147253
503,147267
501,147281
503,147294
508,147308
511,147320
510,147335
507,147349
507,147361
509,147376
512,147388
515,147402
515,147417
516,147429
515,147443
520,147456
526,147470
528,147484
527,147496
525,147511
525,147523
527,147537
525,147552
524,147564
525,147578
526,147591
530,147605
530,147619
530,147632
529,147646
528,147658
535,147673
541,147687
543,147699
543,147714
544,147726
554,147740
636,147755
698,147767
668,147781
413,147793
458,147808
499,147822
520,147834
532,147849
538,147863
542,147875
550,147890
559,147902
565,147916
569,147931
572,147943
572,147957
574,147970
571,147984
569,147998
569,148011
570,148025
573,148037
575,148051
573,148066
571,148078
569,148092
570,148105
574,148119
575,148133
574,148146
572,148160
573,148172
577,148187
578,148201
577,148213
574,148228
572,148240
573,148254
574,148269
575,148281
574,148295
573,148307
574,148322
577,148336
579,148348
577,148363
574,148375
572,148389
573,148404
573,148416
572,148430
570,148443
569,148457
573,148471
576,148484
574,148498
571,148510
568,148525
571,148539
576,148551
578,148566
578,148578
575,148592
575,148606
583,148619
664,148633
702,148645
663,148660
437,148674
489,148686
520,148701
536,148713
545,148727
551,148742
559,148754
567,148768
574,148781
577,148795
578,148809
578,148822
579,148836
575,148848
570,148862
566,148877
566,148889
569,148903
572,148916
572,148930
570,148944
565,148957
565,148971
568,148983
571,148998
570,149012
566,149024
562,149039
562,149051
562,149065
561,149080
558,149092
554,149106
553,149118
554,149133
551,149147
548,149159
